0.00367821	0.00000000
0.00779059	0.00000000
0.01197670	0.00000000
0.01197670	5.00000000
0.01655603	5.00000000
0.02089779	5.00000000
0.02089779	0.00000000
0.02468250	0.00000000
0.02862285	0.00000000
0.03372646	0.01960784
0.03372646	5.00000000
0.03683123	5.00000000
0.04074701	5.00000000
0.04553933	0.00000000
0.04553933	0.00000000
0.04939776	0.00000000
0.05365760	5.00000000
0.05749965	5.00000000
0.06129254	5.00000000
0.06527386	0.00000000
0.06527386	0.00000000
0.06918963	0.00000000
0.07330202	5.00000000
0.07751270	5.00000000
0.07751270	5.00000000
0.08147763	0.00000000
0.08555724	0.00000000
0.08979251	0.00000000
0.08979251	0.07843138
0.09388851	5.00000000
0.09789440	5.00000000
0.10198221	0.00000000
0.10617651	0.00000000
0.11106714	0.00000000
0.11106714	5.00000000
0.11488461	5.00000000
0.11835802	5.00000000
0.12292915	5.00000000
0.12292915	0.00000000
0.12758221	0.00000000
0.13095731	0.00000000
0.13480756	5.00000000
0.13480756	5.00000000
0.13935411	5.00000000
0.14308147	0.00000000
0.14308147	0.00000000
0.14718567	0.00000000
0.15149465	0.11764706
0.15532851	5.00000000
0.15532851	5.00000000
0.15937535	5.00000000
0.16347955	0.00000000
0.16755098	0.00000000
0.16755098	0.00000000
0.17195827	5.00000000
0.17624269	5.00000000
0.17995366	5.00000000
0.18407424	0.00000000
0.18911232	0.00000000
0.18911232	0.00000000
0.19232358	5.00000000
0.19624755	5.00000000
0.20035994	5.00000000
0.20035994	0.00000000
0.20466073	0.00000000
0.20860928	0.00000000
0.21272166	0.27450982
0.21272166	5.00000000
0.21700609	5.00000000
0.22092186	5.00000000
0.22491956	0.00000000
0.22917940	0.00000000
0.23326720	5.00000000
0.23326720	5.00000000
0.23737139	5.00000000
0.24146739	4.96078444
0.24554701	0.00000000
0.24554701	0.00000000
0.24955289	0.00000000
0.25365710	5.00000000
0.25769573	5.00000000
0.25769573	5.00000000
0.26180813	0.00000000
0.26588774	0.00000000
0.26588774	0.00000000
0.26986086	0.31372550
0.27397326	5.00000000
0.27824947	5.00000000
0.27824947	5.00000000
0.28308275	0.00000000
0.28643328	0.00000000
0.29040641	0.00000000
0.29040641	5.00000000
0.29462528	5.00000000
0.29927835	5.00000000
0.30314496	4.98039198
0.30314496	0.00000000
0.30692148	0.00000000
0.31123045	0.00000000
0.31123045	5.00000000
0.31512165	5.00000000
0.31911117	5.00000000
0.32315803	0.00000000
0.32315803	0.00000000
0.32746699	0.00000000
0.33139917	0.35294119
0.33547059	5.00000000
0.33547059	5.00000000
0.33957478	5.00000000
0.34369537	0.00000000
0.34775859	0.00000000
0.35178906	5.00000000
0.35600793	5.00000000
0.35600793	5.00000000
0.36017767	4.90196085
0.36421633	0.00000000
0.36832869	0.00000000
0.36832869	0.00000000
0.37300634	5.00000000
0.37658623	5.00000000
0.38068223	5.00000000
0.38068223	0.00000000
0.38457343	0.00000000
0.38887423	0.00000000
0.39287195	5.00000000
0.39695156	5.00000000
0.40101478	5.00000000
0.40101478	0.00000000
0.40511078	0.00000000
0.40915763	0.00000000
0.41336012	5.00000000
0.41336012	5.00000000
0.41743156	5.00000000
0.42165044	4.92156839
0.42562357	0.00000000
0.42562357	0.00000000
0.42972773	0.00000000
0.43415961	5.00000000
0.43415961	5.00000000
0.43824741	5.00000000
0.44202393	0.00000000
0.44608718	0.00000000
0.44608718	0.00000000
0.45022413	0.58823532
0.45421362	5.00000000
0.45847347	5.00000000
0.45847347	5.00000000
0.46247935	0.00000000
0.46655896	0.00000000
0.47066316	5.00000000
0.47484109	5.00000000
0.47878963	5.00000000
0.47878963	4.92156839
0.48305768	0.00000000
0.48712909	0.00000000
0.49120051	0.00000000
0.49120051	5.00000000
0.49550951	5.00000000
0.49955636	5.00000000
0.50355405	0.00000000
0.50355405	0.00000000
0.50750262	0.00000000
0.51160681	0.56862748
0.51576012	5.00000000
0.51979876	5.00000000
0.52391934	0.00000000
0.52391934	0.00000000
0.52826113	0.00000000
0.53224242	5.00000000
0.53620738	5.00000000
0.53620738	5.00000000
0.54028696	5.00000000
0.54453862	0.00000000
0.54864281	0.00000000
0.54864281	0.00000000
0.55264050	5.00000000
0.55682665	5.00000000
0.55682665	5.00000000
0.56118476	4.80392170
0.56500226	0.00000000
0.56904089	0.00000000
0.56904089	1.70588231
0.57308775	5.00000000
0.57732302	5.00000000
0.58133709	4.98039198
0.58133709	0.00000000
0.58541667	0.00000000
0.58943897	0.00000000
0.59372342	4.98039198
0.59372342	5.00000000
0.59767193	5.00000000
0.60171062	4.33333349
0.60171062	0.00000000
0.60584754	0.00000000
0.61005825	0.00000000
0.61409688	5.00000000
0.61409688	5.00000000
0.61813557	5.00000000
0.62241179	0.76470590
0.62644225	0.00000000
0.62644225	0.00000000
0.63043177	0.98039216
0.63448679	5.00000000
0.63876301	5.00000000
0.64272791	0.00000000
0.64690584	0.00000000
0.64690584	0.00000000
0.65086257	4.84313726
0.65497500	5.00000000
0.65905458	5.00000000
0.65905458	4.07843161
0.66315877	0.00000000
0.66735309	0.00000000
0.67153919	0.00000000
0.67153919	5.00000000
0.67555326	5.00000000
0.67957556	5.00000000
0.68393368	0.00000000
0.68787402	0.00000000
0.69192910	0.76470590
0.69192910	5.00000000
0.69595957	5.00000000
0.70008832	5.00000000
0.70415974	0.00000000
0.70415974	0.00000000
0.70825577	0.00000000
0.71236813	4.43137264
0.71649688	5.00000000
0.71649688	5.00000000
0.72061747	4.09803915
0.72468889	0.00000000
0.72468889	0.00000000
0.72872758	0.00000000
0.73296279	5.00000000
0.73705882	5.00000000
0.73705882	5.00000000
0.74099100	0.29411766
0.74516892	0.00000000
0.74940413	0.00000000
0.74940413	0.78431374
0.75337726	5.00000000
0.75735861	5.00000000
0.76149553	0.00000000
0.76559973	0.00000000
0.76965481	0.00000000
0.76965481	4.72549009
0.77373439	5.00000000
0.77801061	5.00000000
0.78204930	4.21568632
0.78204930	0.00000000
0.78614527	0.00000000
0.79011023	0.00000000
0.79468954	5.00000000
0.79468954	5.00000000
0.79846603	5.00000000
0.80248833	0.31372550
0.80661708	0.00000000
0.81113088	0.66666669
0.81516951	5.00000000
0.81516951	5.00000000
0.81892145	5.00000000
0.82296830	0.00000000
0.82725275	0.00000000
0.82725275	0.00000000
0.83115214	4.52941179
0.83528906	5.00000000
0.83934414	5.00000000
0.83934414	4.29411745
0.84346473	0.00000000
0.84766722	0.00000000
0.84766722	0.00000000
0.85186148	5.00000000
0.85571992	5.00000000
0.86006987	5.00000000
0.86006987	0.00000000
0.86396110	0.00000000
0.86804891	0.00000000
0.87259543	0.76470590
0.87259543	5.00000000
0.87625730	5.00000000
0.88033688	5.00000000
0.88436735	0.00000000
0.88436735	0.00000000
0.88855350	0.00000000
0.89260030	4.98039198
0.89260030	5.00000000
0.89670449	5.00000000
0.90072680	4.17647076
0.90501118	0.00000000
0.90501118	0.00000000
0.90895158	0.00000000
0.91310489	5.00000000
0.91723365	5.00000000
0.91723365	5.00000000
0.92137063	0.00000000
0.92543387	0.00000000
0.92963636	0.68627453
0.93357670	5.00000000
0.93777102	5.00000000
0.93777102	5.00000000
0.94166219	0.00000000
0.94594663	0.00000000
0.94998527	0.00000000
0.94998527	4.98039198
0.95399117	5.00000000
0.95810354	5.00000000
0.96224868	4.01960802
0.96224868	0.00000000
0.96639383	0.00000000
0.97075200	0.00000000
0.97447938	5.00000000
0.97859174	5.00000000
0.98278606	0.00000000
0.98278606	0.00000000
0.98689026	0.00000000
0.99083877	0.78431374
0.99504948	5.00000000
0.99504948	5.00000000
0.99931753	5.00000000
1.00324965	0.00000000
1.00723922	0.00000000
1.00723922	0.00000000
1.01140893	4.98039198
1.01545572	5.00000000
1.01545572	5.00000000
1.01951897	4.03921556
1.02362311	0.00000000
1.02783382	0.00000000
1.02783382	0.00000000
1.03197086	5.00000000
1.03596032	5.00000000
1.03997445	5.00000000
1.03997445	0.00000000
1.04422605	0.00000000
1.04846954	0.00000000
1.05250001	5.00000000
1.05660415	5.00000000
1.06095409	5.00000000
1.06095409	0.00000000
1.06496000	0.00000000
1.06877744	0.00000000
1.07281613	5.00000000
1.07281613	5.00000000
1.07689571	5.00000000
1.08099997	4.13725471
1.08507133	0.00000000
1.08507133	0.00000000
1.08915913	0.00000000
1.09328794	5.00000000
1.09738398	5.00000000
1.10154545	0.00000000
1.10560048	0.00000000
1.10560048	0.00000000
1.10977030	0.94117647
1.11386621	5.00000000
1.11795402	5.00000000
1.11795402	5.00000000
1.12229586	0.00000000
1.12644911	0.00000000
1.13038135	0.00000000
1.13038135	5.00000000
1.13424790	5.00000000
1.13832760	5.00000000
1.13832760	4.00000000
1.14239895	0.00000000
1.14651132	0.00000000
1.15071380	0.00000000
1.15071380	5.00000000
1.15494907	5.00000000
1.15888131	5.00000000
1.16295266	0.00000000
1.16295266	0.00000000
1.16710603	0.00000000
1.17125118	1.17647064
1.17531443	5.00000000
1.17531443	5.00000000
1.17933667	5.00000000
1.18347371	0.00000000
1.18347371	0.00000000
1.18763518	0.00000000
1.19170666	5.00000000
1.19570434	5.00000000
1.19570434	5.00000000
1.20055401	3.94117641
1.20399463	0.00000000
1.20804965	0.00000000
1.20804965	0.00000000
1.21214569	5.00000000
1.21627438	5.00000000
1.22055066	0.00000000
1.22436810	0.00000000
1.22845590	0.00000000
1.22845590	1.11764705
1.23262572	5.00000000
1.23674619	5.00000000
1.24070299	5.00000000
1.24070299	0.00000000
1.24488091	0.00000000
1.24909163	0.00000000
1.25311387	5.00000000
1.25311387	5.00000000
1.25712788	5.00000000
1.26136315	3.74509811
1.26536906	0.00000000
1.26943231	0.00000000
1.27349555	5.00000000
1.27349555	5.00000000
1.27768981	5.00000000
1.28181863	0.00000000
1.28590643	0.00000000
1.28590643	0.00000000
1.28985500	1.09803927
1.29445887	5.00000000
1.29825175	5.00000000
1.29825175	5.00000000
1.30226588	0.00000000
1.30633724	0.00000000
1.30633724	0.00000000
1.31072819	5.00000000
1.31476688	5.00000000
1.31858432	5.00000000
1.31858432	3.66666675
1.32266390	0.00000000
1.32676816	0.00000000
1.33086407	0.00000000
1.33086407	5.00000000
1.33493555	5.00000000
1.33904791	5.00000000
1.34319305	0.00000000
1.34725630	0.00000000
1.35136056	1.21568632
1.35136056	5.00000000
1.35547292	5.00000000
1.35970819	5.00000000
1.36376321	0.00000000
1.36376321	0.00000000
1.36783457	0.00000000
1.37202895	5.00000000
1.37616587	5.00000000
1.37616587	5.00000000
1.38019633	3.50980401
1.38416946	0.00000000
1.38823271	0.00000000
1.39231229	5.00000000
1.39653122	5.00000000
1.39653122	5.00000000
1.40050435	0.00000000
1.40460026	0.00000000
1.40877819	0.00000000
1.40877819	1.54901958
1.41282511	5.00000000
1.41682279	5.00000000
1.42118907	5.00000000
1.42118907	0.00000000
1.42514586	0.00000000
1.42919266	0.00000000
1.42919266	5.00000000
1.43337882	5.00000000
1.43757308	5.00000000
1.44155443	3.74509811
1.44155443	0.00000000
1.44557667	0.00000000
1.44972181	0.00000000
1.45387518	5.00000000
1.45387518	5.00000000
1.45791388	5.00000000
1.46198523	0.00000000
1.46622050	0.00000000
1.46622050	0.00000000
1.47030830	1.39215684
1.47424054	5.00000000
1.47424054	5.00000000
1.47834468	5.00000000
1.48258817	0.00000000
1.48658586	0.00000000
1.48658586	0.00000000
1.49062455	5.00000000
1.49476969	5.00000000
1.49900496	5.00000000
1.49900496	3.45098042
1.50297809	0.00000000
1.50699210	0.00000000
1.51113725	5.00000000
1.51522505	5.00000000
1.51926374	5.00000000
1.51926374	0.00000000
1.52335155	0.00000000
1.52775061	0.00000000
1.53178930	1.50980389
1.53178930	5.00000000
1.53572965	5.00000000
1.53982568	5.00000000
1.54393804	0.00000000
1.54393804	0.00000000
1.54811597	0.00000000
1.55217922	5.00000000
1.55626702	5.00000000
1.56064975	3.23529410
1.56447542	0.00000000
1.56447542	0.00000000
1.56848133	0.00000000
1.57248712	5.00000000
1.57667327	5.00000000
1.57667327	5.00000000
1.58072829	0.00000000
1.58482432	0.00000000
1.58892035	0.00000000
1.58892035	1.52941179
1.59305727	5.00000000
1.59715331	5.00000000
1.59715331	5.00000000
1.60124111	0.00000000
1.60532892	0.00000000
1.60960507	0.00000000
1.60960507	5.00000000
1.61361098	5.00000000
1.61769879	5.00000000
1.62202418	3.43137264
1.62202418	0.00000000
1.62612844	0.00000000
1.63012612	0.00000000
1.63400912	5.00000000
1.63805592	5.00000000
1.64219284	0.00000000
1.64219284	0.00000000
1.64626431	0.00000000
1.65037668	1.68627453
1.65451372	5.00000000
1.65451372	5.00000000
1.65854418	5.00000000
1.66264009	0.00000000
1.66679347	0.00000000
1.66679347	0.00000000
1.67105329	5.00000000
1.67503464	5.00000000
1.67905688	3.35294127
1.68321025	0.00000000
1.68756020	0.00000000
1.68756020	0.00000000
1.69148421	5.00000000
1.69544911	5.00000000
1.69956970	5.00000000
1.69956970	0.00000000
1.70364928	0.00000000
1.70774531	0.00000000
1.71195602	1.49019611
1.71195602	5.00000000
1.71607649	5.00000000
1.72018075	5.00000000
1.72018075	0.00000000
1.72413743	0.00000000
1.72824168	0.00000000
1.73239505	5.00000000
1.73239505	5.00000000
1.73654830	5.00000000
1.74048865	3.33333325
1.74473214	0.00000000
1.74473214	0.00000000
1.74894285	0.00000000
1.75294876	5.00000000
1.75690544	5.00000000
1.75690544	5.00000000
1.76101780	0.00000000
1.76509750	0.00000000
1.76509750	0.00000000
1.76912796	1.62745094
1.77328944	5.00000000
1.77748382	5.00000000
1.77748382	5.00000000
1.78159618	0.00000000
1.78559387	0.00000000
1.78973901	0.00000000
1.78973901	5.00000000
1.79449034	5.00000000
1.79802108	5.00000000
1.80207610	0.00000000
1.80611479	0.00000000
1.81052208	0.00000000
1.81052208	5.00000000
1.81444609	5.00000000
1.81837821	5.00000000
1.82240057	0.00000000
1.82240057	0.00000000
1.82666850	0.00000000
1.83066618	1.66666663
1.83468032	5.00000000
1.83468032	5.00000000
1.83885002	5.00000000
1.84300339	0.00000000
1.84705842	0.00000000
1.85119534	5.00000000
1.85515213	5.00000000
1.85515213	5.00000000
1.85951030	3.03921580
1.86345065	0.00000000
1.86753845	0.00000000
1.86753845	0.00000000
1.87190473	5.00000000
1.87584507	5.00000000
1.88001490	5.00000000
1.88001490	0.00000000
1.88388968	0.00000000
1.88814950	0.00000000
1.88814950	2.03921580
1.89211440	5.00000000
1.89625955	5.00000000
1.90029001	5.00000000
1.90029001	0.00000000
1.90436971	0.00000000
1.90849018	0.00000000
1.91256166	5.00000000
1.91256166	5.00000000
1.91664124	5.00000000
1.92097485	2.94117641
1.92498899	0.00000000
1.92894566	0.00000000
1.93321371	5.00000000
1.93321371	5.00000000
1.93737519	5.00000000
1.94128287	0.00000000
1.94536245	0.00000000
1.94536245	0.00000000
1.94944203	1.96078432
1.95360363	5.00000000
1.95765042	5.00000000
1.95765042	5.00000000
1.96174645	0.00000000
1.96588337	0.00000000
1.96999574	5.00000000
1.97402620	5.00000000
1.97818780	5.00000000
1.97818780	3.01960778
1.98221827	0.00000000
1.98640430	0.00000000
1.99040210	0.00000000
1.99040210	5.00000000
1.99456358	5.00000000
1.99886441	5.00000000
2.00274730	0.00000000
2.00274730	0.00000000
2.00674510	0.00000000
2.01088214	2.29411769
2.01498628	5.00000000
2.01900840	5.00000000
2.02315378	0.00000000
2.02315378	0.00000000
2.02725792	0.00000000
2.03149319	5.00000000
2.03555632	5.00000000
2.03555632	5.00000000
2.03949666	2.82352948
2.04366636	0.00000000
2.04787707	0.00000000
2.04787707	0.00000000
2.05194855	5.00000000
2.05596256	5.00000000
2.05596256	5.00000000
2.06019783	0.00000000
2.06444144	0.00000000
2.06821775	0.00000000
2.06821775	2.23529410
2.07226467	5.00000000
2.07639337	5.00000000
2.08053041	5.00000000
2.08053041	0.00000000
2.08456087	0.00000000
2.08862424	0.00000000
2.09284306	5.00000000
2.09690619	5.00000000
2.10092044	2.29411769
2.10092044	0.00000000
2.10508180	0.00000000
2.10933352	0.00000000
2.11342955	5.00000000
2.11342955	5.00000000
2.11751723	5.00000000
2.12195730	0.00000000
2.12598777	0.00000000
2.12598777	0.00000000
2.12994456	2.27450991
2.13389301	5.00000000
2.13789892	5.00000000
2.14192939	0.00000000
2.14610744	0.00000000
2.14610744	0.00000000
2.15008044	5.00000000
2.15425849	5.00000000
2.15828896	5.00000000
2.15828896	2.50980401
2.16243410	0.00000000
2.16645622	0.00000000
2.17091274	0.00000000
2.17091274	5.00000000
2.17478752	5.00000000
2.17880177	5.00000000
2.17880177	0.00000000
2.18297958	0.00000000
2.18723941	0.00000000
2.19117975	2.72549009
2.19117975	5.00000000
2.19518566	5.00000000
2.19936347	5.00000000
2.20354152	0.00000000
2.20354152	0.00000000
2.20750642	0.00000000
2.21158600	5.00000000
2.21587873	5.00000000
2.21587873	5.00000000
2.21992540	2.33333325
2.22393966	0.00000000
2.22393966	0.00000000
2.22801924	0.00000000
2.23216438	5.00000000
2.23633409	5.00000000
2.23633409	5.00000000
2.24034810	0.00000000
2.24443603	0.00000000
2.24867940	0.00000000
2.24867940	2.68627453
2.25278354	5.00000000
2.25669932	5.00000000
2.26069713	0.00000000
2.26494884	0.00000000
2.26890540	0.00000000
2.26890540	5.00000000
2.27299333	5.00000000
2.27710557	5.00000000
2.28138185	2.13725495
2.28138185	0.00000000
2.28538775	0.00000000
2.28936911	0.00000000
2.29358792	5.00000000
2.29358792	5.00000000
2.29771662	5.00000000
2.30193567	0.00000000
2.30599880	0.00000000
2.31021762	2.76470590
2.31430554	5.00000000
2.31430554	5.00000000
2.31820488	5.00000000
2.32216978	0.00000000
2.32629871	0.00000000
2.32629871	0.00000000
2.33039451	5.00000000
2.33440042	5.00000000
2.33857846	5.00000000
2.33857846	2.13725495
2.34268260	0.00000000
2.34678674	0.00000000
2.34678674	0.00000000
2.35082555	5.00000000
2.35496235	5.00000000
2.35924673	5.00000000
2.35924673	0.00000000
2.36326098	0.00000000
2.36726689	0.00000000
2.37156773	2.76470590
2.37156773	5.00000000
2.37580299	5.00000000
2.37971044	5.00000000
2.38374901	0.00000000
2.38770580	0.00000000
2.39185929	5.00000000
2.39185929	5.00000000
2.39594698	5.00000000
2.39996934	1.96078432
2.40416360	0.00000000
2.40416360	0.00000000
2.40816116	0.00000000
2.41229010	5.00000000
2.41637778	5.00000000
2.41637778	5.00000000
2.42060494	0.00000000
2.42472553	0.00000000
2.42869854	2.94117641
2.43299127	5.00000000
2.43717742	5.00000000
2.43717742	5.00000000
2.44107676	0.00000000
2.44512367	0.00000000
2.44916224	0.00000000
2.44916224	5.00000000
2.45322537	5.00000000
2.45741987	5.00000000
2.46147490	1.92156863
2.46147490	0.00000000
2.46559548	0.00000000
2.46970773	0.00000000
2.46970773	5.00000000
2.47382832	5.00000000
2.47780967	5.00000000
2.48201227	0.00000000
2.48201227	0.00000000
2.48628020	0.00000000
2.49020410	2.84313726
2.49451303	5.00000000
2.49451303	5.00000000
2.49899411	4.98039198
2.50259042	0.00000000
2.50658822	0.00000000
2.50658822	0.00000000
2.51067591	5.00000000
2.51472282	5.00000000
2.51472282	5.00000000
2.51888442	1.94117641
2.52293110	0.00000000
2.52703547	0.00000000
2.52703547	0.00000000
2.53109050	5.00000000
2.53516197	5.00000000
2.53925776	5.00000000
2.53925776	0.00000000
2.54343581	0.00000000
2.54764652	0.00000000
2.55168509	5.00000000
2.55586314	5.00000000
2.56099129	4.98039198
2.56099129	0.00000000
2.56433368	0.00000000
2.56810188	0.00000000
2.57211590	5.00000000
2.57211590	5.00000000
2.57635117	5.00000000
2.58032441	1.64705884
2.58434653	0.00000000
2.58434653	0.00000000
2.58842635	0.00000000
2.59257150	5.00000000
2.59661007	5.00000000
2.60070610	0.00000000
2.60478568	0.00000000
2.60478568	0.00000000
2.60916829	3.35294127
2.61310863	5.00000000
2.61712289	5.00000000
2.61712289	4.98039198
2.62153006	0.00000000
2.62553596	0.00000000
2.62964010	0.00000000
2.62964010	5.00000000
2.63346577	5.00000000
2.63801241	5.00000000
2.63801241	1.29411769
2.64176440	0.00000000
2.64594221	0.00000000
2.64994812	0.00000000
2.64994812	5.00000000
2.65409327	5.00000000
2.65812373	5.00000000
2.66228533	0.00000000
2.66228533	0.00000000
2.66630769	0.00000000
2.67052650	3.19607854
2.67458153	5.00000000
2.67875123	4.96078444
2.68291283	0.00000000
2.68291283	0.00000000
2.68697596	0.00000000
2.69089985	5.00000000
2.69503689	5.00000000
2.69503689	5.00000000
2.69905925	1.09803927
2.70320439	0.00000000
2.70730042	0.00000000
2.70730042	0.01960784
2.71147013	5.00000000
2.71575451	5.00000000
2.71972752	0.00000000
2.72357774	0.00000000
2.72772312	0.00000000
2.72772312	3.80392146
2.73186827	5.00000000
2.73603797	5.00000000
2.74010110	4.94117641
2.74010110	0.00000000
2.74475408	0.00000000
2.74842429	0.00000000
2.75250387	5.00000000
2.75250387	5.00000000
2.75637865	5.00000000
2.76049089	1.23529410
2.76049089	0.00000000
2.76461983	0.00000000
2.76865840	0.00000000
2.77286100	5.00000000
2.77286100	5.00000000
2.77704716	5.00000000
2.78116751	0.00000000
2.78520632	0.00000000
2.78520632	0.00000000
2.78916311	3.76470590
2.79324269	5.00000000
2.79759264	5.00000000
2.79759264	4.92156839
2.80155754	0.00000000
2.80569458	0.00000000
2.80569458	0.00000000
2.80991340	5.00000000
2.81399298	5.00000000
2.81799889	5.00000000
2.81799889	1.15686274
2.82193112	0.00000000
2.82610893	0.00000000
2.83016396	0.01960784
2.83016396	5.00000000
2.83416986	5.00000000
2.83833146	5.00000000
2.84242749	0.00000000
2.84649062	0.00000000
2.85057020	4.05882359
2.85057020	5.00000000
2.85467434	5.00000000
2.85908985	4.90196085
2.86304665	0.00000000
2.86304665	0.00000000
2.86697054	0.00000000
2.87138605	5.00000000
2.87549019	5.00000000
2.87549019	5.00000000
2.87945533	0.82352942
2.88340378	0.00000000
2.88756537	0.03921569
2.89165306	5.00000000
2.89578199	5.00000000
2.89578199	5.00000000
2.89981246	0.00000000
2.90412140	0.00000000
2.90802073	0.00000000
2.90802073	4.23529434
2.91214943	5.00000000
2.91622901	5.00000000
2.92043972	4.86274529
2.92043972	0.00000000
2.92442107	0.00000000
2.92859912	0.00000000
2.92859912	5.00000000
2.93287516	5.00000000
2.93686485	5.00000000
2.94083786	0.60784316
2.94083786	0.00000000
2.94490123	0.00000000
2.94893980	0.09803922
2.95308495	5.00000000
2.95308495	5.00000000
2.95709085	5.00000000
2.96131778	0.00000000
2.96545482	0.00000000
2.96946073	4.09803915
2.97345853	5.00000000
2.97345853	5.00000000
2.97766924	4.86274529
2.98171592	0.00000000
2.98592663	0.00000000
2.98592663	0.00000000
2.98994899	5.00000000
2.99441361	5.00000000
2.99837852	5.00000000
2.99837852	0.72549021
3.00231886	0.00000000
3.00628376	0.00000000
3.01033878	5.00000000
3.01449227	5.00000000
3.01853895	5.00000000
3.01853895	0.00000000
3.02259398	0.00000000
3.02682924	0.00000000
3.03099895	4.54901981
3.03099895	5.00000000
3.03502131	5.00000000
3.03901911	4.82352924
3.04311490	0.00000000
3.04311490	0.00000000
3.04735851	0.00000000
3.05139709	5.00000000
3.05139709	5.00000000
3.05550957	5.00000000
3.05979395	0.00000000
3.06395555	0.00000000
3.06395555	0.00000000
3.06777287	0.09803922
3.07189345	5.00000000
3.07604694	5.00000000
3.07604694	5.00000000
3.08008552	0.00000000
3.08407497	0.00000000
3.08824468	0.00000000
3.08824468	4.74509811
3.09231615	5.00000000
3.09640408	5.00000000
3.09640408	4.76470566
3.10044265	0.00000000
3.10453033	0.00000000
3.10888028	0.00000000
3.10888028	5.00000000
3.11288619	5.00000000
3.11689210	5.00000000
3.12121749	0.19607843
3.12121749	0.00000000
3.12536263	0.00000000
3.12936044	0.27450982
3.13328433	5.00000000
3.13729024	5.00000000
3.14142728	0.00000000
3.14142728	0.00000000
3.14551497	0.00000000
3.14960289	4.96078444
3.15391183	5.00000000
3.15391183	5.00000000
3.15813899	4.62745094
3.16193175	0.00000000
3.16601968	0.00000000
3.16601968	0.00000000
3.17045140	5.00000000
3.17429352	5.00000000
3.17837310	0.01960784
3.18260837	0.00000000
3.18700743	0.00000000
3.18700743	0.27450982
3.19075131	5.00000000
3.19473243	5.00000000
3.19886136	5.00000000
3.19886136	0.00000000
3.20298195	0.00000000
3.20702052	0.00000000
3.21105909	4.74509811
3.21105909	5.00000000
3.21531081	5.00000000
3.21928406	4.60784292
3.21928406	0.00000000
3.22333074	0.00000000
3.22742677	0.00000000
3.23176050	5.00000000
3.23176050	5.00000000
3.23577452	5.00000000
3.23982954	0.00000000
3.24405646	0.00000000
3.24405646	0.00000000
3.24834919	0.21568628
3.25226498	5.00000000
3.25622177	5.00000000
3.26027679	0.00000000
3.26438093	0.00000000
3.26438093	0.00000000
3.26841140	4.92156839
3.27247453	5.00000000
3.27666903	5.00000000
3.27666903	4.49019623
3.28081417	0.00000000
3.28495932	0.00000000
3.28892422	0.00000000
3.28892422	5.00000000
3.29293013	5.00000000
3.29731274	5.00000000
3.30131865	0.00000000
3.30545568	0.00000000
3.30995297	0.37254903
3.30995297	5.00000000
3.31377864	5.00000000
3.31781745	5.00000000
3.32177401	0.00000000
3.32177401	0.00000000
3.32609129	0.00000000
3.32996607	4.98039198
3.33397198	5.00000000
3.33397198	5.00000000
3.33801055	4.52941179
3.34224582	0.00000000
3.34224582	0.00000000
3.34625173	0.00000000
3.35041332	5.00000000
3.35446835	5.00000000
3.35446835	5.00000000
3.35878563	0.00000000
3.36272597	0.00000000
3.36681366	0.00000000
3.36681366	0.47058824
3.37113905	5.00000000
3.37529230	5.00000000
3.37924910	5.00000000
3.37924910	0.00000000
3.38322234	0.00000000
3.38721180	0.00000000
3.38721180	4.98039198
3.39142251	5.00000000
3.39539552	5.00000000
3.39957356	4.43137264
3.39957356	0.00000000
3.40371037	0.00000000
3.40773273	0.00000000
3.41186142	5.00000000
3.41186142	5.00000000
3.41585112	5.00000000
3.42032385	0.00000000
3.42418218	0.00000000
3.42817998	0.47058824
3.43236613	5.00000000
3.43236613	5.00000000
3.43665051	5.00000000
3.44054985	0.00000000
3.44459677	0.00000000
3.44459677	0.00000000
3.44865179	4.98039198
3.45286250	5.00000000
3.45695853	5.00000000
3.45695853	4.43137264
3.46100521	0.00000000
3.46516681	0.00000000
3.46927094	5.00000000
3.47336698	5.00000000
3.47735643	5.00000000
3.47735643	0.00000000
3.48174739	0.00000000
3.48565507	0.00000000
3.48974276	0.54901963
3.48974276	5.00000000
3.49409270	5.00000000
3.49820518	5.00000000
3.50212908	0.00000000
3.50212908	0.00000000
3.50605321	0.00000000
3.51013279	4.98039198
3.51013279	5.00000000
3.51426148	5.00000000
3.51828384	4.27450991
3.52237153	0.00000000
3.52237153	0.00000000
3.52651668	0.00000000
3.53069472	5.00000000
3.53476620	5.00000000
3.53476620	5.00000000
3.53889489	0.00000000
3.54285169	0.00000000
3.54713607	0.64705884
3.55116653	5.00000000
3.55522966	5.00000000
3.55522966	5.00000000
3.55953860	0.00000000
3.56370831	0.00000000
3.56769800	0.00000000
3.56769800	4.98039198
3.57157278	5.00000000
3.57570148	5.00000000
3.57995319	4.35294104
3.57995319	0.00000000
3.58398366	0.00000000
3.58810425	0.00000000
3.59222484	5.00000000
3.59614062	5.00000000
3.60022020	0.00000000
3.60022020	0.00000000
3.60432434	0.00000000
3.60860872	0.72549021
3.61261463	5.00000000
3.61261463	5.00000000
3.61666155	5.00000000
3.62091327	0.00000000
3.62527943	0.00000000
3.62527943	0.00000000
3.62913799	5.00000000
3.63305378	5.00000000
3.63305378	5.00000000
3.63726449	4.27450991
3.64122939	0.00000000
3.64539909	0.00000000
3.64539909	0.00000000
3.64942956	5.00000000
3.65351725	5.00000000
3.65762973	5.00000000
3.65762973	0.00000000
3.66169286	0.00000000
3.66572332	0.00000000
3.67017984	0.80392158
3.67017984	5.00000000
3.67403007	5.00000000
3.67809319	5.00000000
3.67809319	0.00000000
3.68218923	0.00000000
3.68670321	0.00000000
3.69048786	5.00000000
3.69048786	5.00000000
3.69449377	5.00000000
3.69849968	4.09803915
3.70277572	0.00000000
3.70277572	0.00000000
3.70683908	0.00000000
3.71101689	5.00000000
3.71521950	5.00000000
3.71907783	0.00000000
3.72310829	0.00000000
3.72310829	0.00000000
3.72721243	0.82352942
3.73131680	5.00000000
3.73563385	5.00000000
3.73563385	5.00000000
3.73956609	0.00000000
3.74383402	0.00000000
3.74806118	0.00000000
3.74806118	5.00000000
3.75218177	5.00000000
3.75596642	5.00000000
3.75999689	0.00000000
3.76410937	0.00000000
3.76816440	0.00000000
3.76816440	5.00000000
3.77227664	5.00000000
3.77634811	5.00000000
3.78063250	0.00000000
3.78063250	0.00000000
3.78463840	0.00000000
3.78868532	0.90196079
3.79278946	5.00000000
3.79278946	5.00000000
3.79700828	5.00000000
3.80105519	0.00000000
3.80105519	0.00000000
3.80511022	0.00000000
3.80976343	5.00000000
3.81347442	5.00000000
3.81347442	5.00000000
3.81743097	3.84313726
3.82149434	0.00000000
3.82570505	0.00000000
3.82570505	0.00000000
3.82971096	5.00000000
3.83373308	5.00000000
3.83780456	0.00000000
3.84192514	0.00000000
3.84602118	0.00000000
3.84602118	0.94117647
3.85009265	5.00000000
3.85414767	5.00000000
3.85853028	5.00000000
3.85853028	0.00000000
3.86254430	0.00000000
3.86655021	0.00000000
3.87091660	5.00000000
3.87091660	5.00000000
3.87523389	5.00000000
3.87909222	3.82352948
3.88299990	0.00000000
3.88725138	0.00000000
3.89116716	5.00000000
3.89116716	5.00000000
3.89529610	5.00000000
3.89930201	0.00000000
3.90342236	0.00000000
3.90342236	0.00000000
3.90746927	1.17647064
3.91154885	5.00000000
3.91564488	5.00000000
3.91564488	5.00000000
3.91980648	0.00000000
3.92395163	0.00000000
3.92395163	0.00000000
3.92794108	5.00000000
3.93208623	5.00000000
3.93646908	5.00000000
3.93646908	3.84313726
3.94043398	0.00000000
3.94434142	0.00000000
3.94843745	0.00000000
3.94843745	5.00000000
3.95259094	5.00000000
3.95663762	5.00000000
3.96077466	0.00000000
3.96077466	0.00000000
3.96486235	0.00000000
3.96896672	1.17647064
3.96896672	5.00000000
3.97309542	5.00000000
3.97714233	5.00000000
3.98190999	0.00000000
3.98190999	0.00000000
3.98539972	0.00000000
3.98942208	5.00000000
3.99357533	5.00000000
3.99357533	5.00000000
3.99796629	3.72549009
4.00176764	0.00000000
4.00585508	0.00000000
4.00980377	5.00000000
4.01403904	5.00000000
4.01403904	5.00000000
4.01802015	0.00000000
4.02213287	0.00000000
4.02622032	0.00000000
4.02622032	1.23529410
4.03054571	5.00000000
4.03447008	5.00000000
4.03854132	5.00000000
4.03854132	0.00000000
4.04257154	0.00000000
4.04689693	0.00000000
4.05094385	5.00000000
4.05494165	5.00000000
4.05923414	3.56862736
4.05923414	0.00000000
4.06352711	0.00000000
4.06743431	0.00000000
4.07138300	5.00000000
4.07138300	5.00000000
4.07538891	5.00000000
4.07952595	0.00000000
4.08358097	0.00000000
4.08358097	0.00000000
4.08771801	1.35294116
4.09191227	5.00000000
4.09191227	5.00000000
4.09585238	5.00000000
4.10005522	0.00000000
4.10408545	0.00000000
4.10408545	0.00000000
4.10837793	5.00000000
4.11230230	5.00000000
4.11641455	5.00000000
4.11641455	3.52941179
4.12050247	0.00000000
4.12473774	0.00000000
4.12872696	5.00000000
4.13280678	5.00000000
4.13692713	5.00000000
4.13692713	0.00000000
4.14115429	0.00000000
4.14508629	0.00000000
4.14921522	1.56862748
4.14921522	5.00000000
4.15321302	5.00000000
4.15744829	5.00000000
4.16153622	0.00000000
4.16153622	0.00000000
4.16558266	0.00000000
4.16972780	5.00000000
4.17379141	5.00000000
4.17799377	3.37254906
4.18213892	0.00000000
4.18213892	0.00000000
4.18621826	0.00000000
4.19021606	5.00000000
4.19417286	5.00000000
4.19417286	5.00000000
4.19835901	0.00000000
4.20243025	0.00000000
4.20646906	0.00000000
4.20646906	1.54901958
4.21062231	5.00000000
4.21471024	5.00000000
4.21471024	5.00000000
4.21901941	0.00000000
4.22296762	0.00000000
4.22694921	0.00000000
4.22694921	5.00000000
4.23114347	5.00000000
4.23530483	5.00000000
4.23936796	3.37254906
4.23936796	0.00000000
4.24343157	0.00000000
4.24780607	0.00000000
4.25203323	5.00000000
4.25203323	5.00000000
4.25586700	5.00000000
4.25981522	0.00000000
4.25981522	0.00000000
4.26382971	0.00000000
4.26793385	1.41176474
4.27202129	5.00000000
4.27202129	5.00000000
4.27611732	5.00000000
4.28023815	0.00000000
4.28439951	0.00000000
4.28439951	0.00000000
4.28852034	5.00000000
4.29261637	5.00000000
4.29683495	3.39215684
4.30083275	0.00000000
4.30486345	0.00000000
4.30486345	0.00000000
4.30917215	5.00000000
4.31337452	5.00000000
4.31726599	5.00000000
4.31726599	0.00000000
4.32127190	0.00000000
4.32531881	0.00000000
4.32952118	1.62745094
4.32952118	5.00000000
4.33348608	5.00000000
4.33754921	5.00000000
4.34171104	0.00000000
4.34579849	0.00000000
4.34989452	5.00000000
4.34989452	5.00000000
4.35393333	5.00000000
4.35828304	3.05882359
4.36223173	0.00000000
4.36223173	0.00000000
4.36624575	0.00000000
4.37082529	5.00000000
4.37481451	5.00000000
4.37481451	5.00000000
4.37883711	0.00000000
4.38268709	0.00000000
4.38268709	0.00000000
4.38692236	1.80392158
4.39091206	5.00000000
4.39505720	5.00000000
4.39505720	5.00000000
4.39912033	0.00000000
4.40319204	0.00000000
4.40723848	0.00000000
4.40723848	5.00000000
4.41147375	5.00000000
4.41541433	5.00000000
4.41958380	0.00000000
4.42378664	0.00000000
4.42772675	0.00000000
4.42772675	5.00000000
4.43188000	5.00000000
4.43608284	5.00000000
4.44017029	0.00000000
4.44017029	0.00000000
4.44406986	0.00000000
4.44814968	1.90196073
4.45239305	5.00000000
4.45239305	5.00000000
4.45642328	5.00000000
4.46055222	0.00000000
4.46462345	0.00000000
4.46872759	5.00000000
4.47281551	5.00000000
4.47281551	5.00000000
4.47692823	2.80392146
4.48101568	0.00000000
4.48512840	0.00000000
4.48512840	0.00000000
4.48917484	5.00000000
4.49347591	5.00000000
4.49813700	5.00000000
4.49813700	0.00000000
4.50187254	0.00000000
4.50575542	0.00000000
4.50974512	5.00000000
4.51380825	5.00000000
4.51789618	5.00000000
4.51789618	0.00000000
4.52193499	0.00000000
4.52607203	0.00000000
4.53048706	5.00000000
4.53048706	5.00000000
4.53434563	5.00000000
4.53841734	2.94117641
4.54243135	0.00000000
4.54243135	0.00000000
4.54660892	0.00000000
4.55071354	5.00000000
4.55071354	5.00000000
4.55469465	5.00000000
4.55897093	0.00000000
4.56328821	0.00000000
4.56328821	0.00000000
4.56706476	2.29411769
4.57110310	5.00000000
4.57547760	5.00000000
4.57547760	5.00000000
4.57942629	0.00000000
4.58344841	0.00000000
4.58743811	5.00000000
4.59186172	5.00000000
4.59610510	5.00000000
4.59610510	2.82352948
4.59976721	0.00000000
4.60387135	0.00000000
4.60825396	0.00000000
4.60825396	5.00000000
4.61234188	5.00000000
4.61629868	5.00000000
4.62044382	0.00000000
4.62044382	0.00000000
4.62449884	0.00000000
4.62843895	2.27450991
4.63261700	5.00000000
4.63668013	5.00000000
4.64093161	0.00000000
4.64093161	0.00000000
4.64493752	0.00000000
4.64900923	5.00000000
4.65313768	5.00000000
4.65313768	5.00000000
4.65725040	2.68627453
4.66131353	0.00000000
4.66525412	0.00000000
4.66525412	0.00000000
4.66966105	5.00000000
4.67375708	5.00000000
4.67375708	5.00000000
4.67755842	0.00000000
4.68175268	0.00000000
4.68623352	0.00000000
4.68623352	2.47058821
4.69003487	5.00000000
4.69401598	5.00000000
4.69811201	5.00000000
4.69811201	0.00000000
4.70228195	0.00000000
4.70637751	0.00000000
4.71040821	5.00000000
4.71040821	5.00000000
4.71444702	5.00000000
4.71864939	2.37254906
4.71864939	0.00000000
4.72258139	0.00000000
4.72669411	0.00000000
4.73094559	5.00000000
4.73094559	5.00000000
4.73504162	5.00000000
4.73912096	0.00000000
4.74317598	0.00000000
4.74317598	0.00000000
4.74745226	2.45098042
4.75158119	5.00000000
4.75549698	5.00000000
4.75948668	0.00000000
4.76365614	0.00000000
4.76365614	0.00000000
4.76774406	5.00000000
4.77178288	5.00000000
4.77587032	5.00000000
4.77587032	2.50980401
4.78004837	0.00000000
4.78411150	0.00000000
4.78823233	0.00000000
4.78823233	5.00000000
4.79229546	5.00000000
4.79659605	5.00000000
4.80060196	0.00000000
4.80465698	0.00000000
4.80929375	2.45098042
4.80929375	5.00000000
4.81308651	5.00000000
4.81700230	4.98039198
4.82100821	0.00000000
4.82100821	0.00000000
4.82501411	0.00000000
4.82915926	5.00000000
4.83318186	5.00000000
4.83318186	5.00000000
4.83734322	2.35294127
4.84146404	0.00000000
4.84146404	0.00000000
4.84555960	0.00000000
4.84958220	5.00000000
4.85368633	5.00000000
4.85368633	5.00000000
4.85793781	0.00000000
4.86199284	0.00000000
4.86599874	0.00000000
4.86599874	2.58823538
4.87018490	5.00000000
4.87463331	5.00000000
4.87865543	0.00000000
4.88251400	0.00000000
4.88647079	0.00000000
4.88647079	5.00000000
4.89062405	5.00000000
4.89483452	5.00000000
4.89889812	2.31372547
4.89889812	0.00000000
4.90293646	0.00000000
4.90695047	0.00000000
4.91107941	5.00000000
4.91107941	5.00000000
4.91520023	5.00000000
4.91933680	0.00000000
4.92349863	0.00000000
4.92750454	2.80392146
4.93170691	5.00000000
4.93170691	5.00000000
4.93592596	4.98039198
4.94007111	0.00000000
4.94386387	0.00000000
4.94386387	0.00000000
4.94792700	5.00000000
4.95212126	5.00000000
4.95620918	5.00000000
4.95620918	2.15686274
4.96019030	0.00000000
4.96436024	0.00000000
4.96436024	0.00000000
4.96842337	5.00000000
4.97247839	5.00000000
4.97658253	5.00000000
4.97658253	0.00000000
4.98068666	0.00000000
4.98502064	0.00000000
4.98906708	2.88235283
4.98906708	5.00000000
4.99319601	5.00000000
4.99743128	4.98039198
5.00162554	0.00000000
5.00162554	0.00000000
5.00542688	0.00000000
5.00943279	5.00000000
5.00943279	5.00000000
5.01355314	5.00000000
5.01758385	1.78431368
5.02183533	0.00000000
5.02183533	0.00000000
5.02584124	0.00000000
5.02993727	5.00000000
5.03402519	5.00000000
5.03402519	5.00000000
5.03808832	0.00000000
5.04211044	0.00000000
5.04634571	2.86274505
5.05043364	5.00000000
5.05458689	5.00000000
5.05458689	4.94117641
5.05897760	0.00000000
5.06298351	0.00000000
5.06693220	0.00000000
5.06693220	5.00000000
5.07083178	5.00000000
5.07507515	5.00000000
5.07914639	1.64705884
5.07914639	0.00000000
5.08312798	0.00000000
5.08721542	0.00000000
5.09146738	5.00000000
5.09543228	5.00000000
5.09948730	0.00000000
5.09948730	0.00000000
5.10355043	0.00000000
5.10776138	3.25490189
5.11198807	5.00000000
5.11198807	5.00000000
5.11590385	4.94117641
5.12005711	0.00000000
5.12433338	0.00000000
5.12433338	0.00000000
5.12828207	5.00000000
5.13234520	5.00000000
5.13234520	5.00000000
5.13635111	1.76470590
5.14048004	0.00000000
5.14464140	0.00000000
5.14464140	0.00000000
5.14863920	5.00000000
5.15280914	5.00000000
5.15699530	5.00000000
5.15699530	0.00000000
5.16098452	0.00000000
5.16502333	0.00000000
5.16922569	5.00000000
5.17338705	5.00000000
5.17736053	4.94117641
5.17736053	0.00000000
5.18147278	0.00000000
5.18577337	0.00000000
5.18980408	5.00000000
5.18980408	5.00000000
5.19374418	5.00000000
5.19785690	1.56862748
5.20203447	0.00000000
5.20203447	0.00000000
5.20607328	0.01960784
5.21008730	5.00000000
5.21421623	5.00000000
5.21841049	0.00000000
5.22244930	0.00000000
5.22244930	0.00000000
5.22643042	3.43137264
5.23064137	5.00000000
5.23485184	5.00000000
5.23485184	4.88235283
5.23886585	0.00000000
5.24293756	0.00000000
5.24717283	0.00000000
5.24717283	5.00000000
5.25132608	5.00000000
5.25521708	5.00000000
5.25521708	1.54901958
5.25931311	0.00000000
5.26337624	0.00000000
5.26744795	0.03921569
5.26744795	5.00000000
5.27149487	5.00000000
5.27559042	5.00000000
5.27984238	0.00000000
5.27984238	0.00000000
5.28388119	0.00000000
5.28797674	3.60784316
5.29198265	5.00000000
5.29198265	5.00000000
5.29623461	4.90196085
5.30038786	0.00000000
5.30038786	0.00000000
5.30441809	0.00000000
5.30871105	5.00000000
5.31289721	5.00000000
5.31289721	5.00000000
5.31683731	1.50980389
5.32067919	0.00000000
5.32486534	0.00000000
5.32486534	0.07843138
5.32906818	5.00000000
5.33305740	5.00000000
5.33704710	0.00000000
5.34129047	0.00000000
5.34528828	0.00000000
5.34528828	3.74509811
5.34934330	5.00000000
5.35343933	5.00000000
5.35788727	4.82352924
5.35788727	0.00000000
5.36177874	0.00000000
5.36577654	0.00000000
5.37020016	5.00000000
5.37020016	5.00000000
5.37424707	5.00000000
5.37833452	1.01960790
5.38227510	0.00000000
5.38628101	0.11764706
5.39041805	5.00000000
5.39041805	5.00000000
5.39442396	5.00000000
5.39857721	0.00000000
5.40274668	0.00000000
5.40274668	0.00000000
5.40676928	3.84313726
5.41086531	5.00000000
5.41500235	5.00000000
5.41500235	4.84313726
5.41925383	0.00000000
5.42314482	0.00000000
5.42314482	0.00000000
5.42730665	5.00000000
5.43136978	5.00000000
5.43549013	5.00000000
5.43549013	1.11764705
5.43961906	0.00000000
5.44354296	0.00000000
5.44772911	0.07843138
5.44772911	5.00000000
5.45189905	5.00000000
5.45598650	5.00000000
5.45996809	0.00000000
5.46409655	0.00000000
5.46828270	3.94117641
5.46828270	5.00000000
5.47230530	5.00000000
5.47632742	4.84313726
5.48061180	0.00000000
5.48061180	0.00000000
5.48470783	0.00000000
5.48868084	5.00000000
5.49288368	5.00000000
5.49288368	5.00000000
5.49711895	0.54901963
5.50102615	0.00000000
5.50512218	0.11764706
5.50917721	5.00000000
5.51351070	5.00000000
5.51351070	5.00000000
5.51732016	0.00000000
5.52142429	0.00000000
5.52550411	0.00000000
5.52550411	4.29411745
5.52972269	5.00000000
5.53380251	5.00000000
5.53784132	4.82352924
5.53784132	0.00000000
5.54193735	0.00000000
5.54617262	0.00000000
5.54617262	5.00000000
5.55012894	5.00000000
5.55425787	5.00000000
5.55823088	1.13725495
5.55823088	0.00000000
5.56249905	0.00000000
5.56657028	0.05882353
5.57059288	5.00000000
5.57059288	5.00000000
5.57470512	5.00000000
5.57889938	0.00000000
5.58292150	0.00000000
5.58292150	0.00000000
5.58698511	3.84313726
5.59108114	5.00000000
5.59108114	5.00000000
5.59525061	4.88235283
5.59925652	0.00000000
5.60336876	0.00000000
5.60336876	0.00000000
5.60756350	5.00000000
5.61157751	5.00000000
5.61569786	5.00000000
5.61569786	1.29411769
5.61981010	0.00000000
5.62402105	0.00000000
5.62806797	5.00000000
5.63204908	5.00000000
5.63619423	5.00000000
5.63619423	0.00000000
5.64033127	0.00000000
5.64432907	0.00000000
5.64852333	3.56862736
5.64852333	5.00000000
5.65260267	5.00000000
5.65682173	4.80392170
5.66080284	0.00000000
5.66080284	0.00000000
5.66496468	0.00000000
5.66895390	5.00000000
5.67309093	5.00000000
5.67717886	0.98039216
5.68138933	0.00000000
5.68138933	0.00000000
5.68542814	0.09803922
5.68958998	5.00000000
5.69351387	5.00000000
5.69351387	5.00000000
5.69773245	0.00000000
5.70177126	0.00000000
5.70580196	0.00000000
5.70580196	3.98039222
5.70991421	5.00000000
5.71410036	5.00000000
5.71410036	4.80392170
5.71816349	0.00000000
5.72222662	0.00000000
5.72622442	0.00000000
5.72622442	5.00000000
5.73050070	5.00000000
5.73465395	5.00000000
5.73878288	1.23529410
5.73878288	0.00000000
5.74266577	0.00000000
5.74708128	0.17647059
5.75102997	5.00000000
5.75494576	5.00000000
5.75903320	0.00000000
5.75903320	0.00000000
5.76334238	0.00000000
5.76725006	4.23529434
5.77130508	5.00000000
5.77130508	5.00000000
5.77537632	4.74509811
5.77954626	0.00000000
5.78365850	0.00000000
5.78365850	0.00000000
5.78771353	5.00000000
5.79190779	5.00000000
5.79626608	1.11764705
5.80000162	0.00000000
5.80406475	0.00000000
5.80406475	0.19607843
5.80818558	5.00000000
5.81231403	5.00000000
5.81631994	5.00000000
5.81631994	0.00000000
5.82044077	0.00000000
5.82460213	0.00000000
5.82873106	4.37254906
5.82873106	5.00000000
5.83280230	5.00000000
5.83687353	4.74509811
5.83687353	0.00000000
5.84129763	0.00000000
5.84513140	0.00000000
5.84916162	5.00000000
5.84916162	5.00000000
5.85322475	5.00000000
5.85743570	0.60784316
5.86157274	0.00000000
5.86157274	0.00000000
5.86560297	0.25490198
5.86964178	5.00000000
5.87381983	5.00000000
5.87381983	5.00000000
5.87795639	0.00000000
5.88195419	0.00000000
5.88195419	0.00000000
5.88605833	4.90196085
5.89020348	5.00000000
5.89426708	5.00000000
5.89426708	4.64705896
5.89839554	0.00000000
5.90260649	0.00000000
5.90663671	0.00000000
5.90663671	5.00000000
5.91060162	5.00000000
5.91475487	5.00000000
5.91897392	0.00000000
5.92296362	0.00000000
5.92708397	0.33333334
5.92708397	5.00000000
5.93111467	5.00000000
5.93521070	5.00000000
5.93931484	0.00000000
5.93931484	0.00000000
5.94335318	0.00000000
5.94750690	4.66666651
5.95164347	5.00000000
5.95164347	5.00000000
5.95566607	4.68627453
5.95977020	0.00000000
5.96389866	0.00000000
5.96802759	5.00000000
5.97205830	5.00000000
5.97205830	5.00000000
5.97612953	0.41176471
5.98047113	0.00000000
5.98450184	0.00000000
5.98450184	0.35294119
5.98875332	5.00000000
5.99257898	5.00000000
5.99691248	5.00000000
5.99691248	0.00000000
6.00093508	0.00000000
6.00499010	0.00000000
6.00499010	4.76470566
6.00887299	5.00000000
6.01318216	5.00000000
6.01716328	4.45098019
6.01716328	0.00000000
6.02133322	0.00000000
6.02526522	0.00000000
6.02961493	5.00000000
6.02961493	5.00000000
6.03353930	5.00000000
6.03757763	0.33333334
6.04167366	0.00000000
6.04604816	0.52941179
6.04993105	5.00000000
6.04993105	5.00000000
6.05397797	5.00000000
6.05800056	0.00000000
6.06244850	0.00000000
6.06244850	0.00000000
6.06631517	4.98039198
6.07029676	5.00000000
6.07445812	5.00000000
6.07445812	4.25490189
6.07859516	0.00000000
6.08272362	0.00000000
6.08672142	5.00000000
6.09114504	5.00000000
6.09498739	5.00000000
6.09498739	0.00000000
6.09904242	0.00000000
6.10305643	0.00000000
6.10724258	0.58823532
6.10724258	5.00000000
6.11144495	5.00000000
6.11548376	5.00000000
6.11964512	0.00000000
6.11964512	0.00000000
6.12393761	0.00000000
6.12786198	5.00000000
6.12786198	5.00000000
6.13180208	5.00000000
6.13583279	4.17647076
6.14006805	0.00000000
6.14006805	0.00000000
6.14407396	0.00000000
6.14822721	5.00000000
6.15248680	5.00000000
6.15248680	5.00000000
6.15636969	0.00000000
6.16045761	0.00000000
6.16463566	0.00000000
6.16463566	0.84313726
6.16868258	5.00000000
6.17287683	5.00000000
6.17287683	5.00000000
6.17690706	0.00000000
6.18092155	0.00000000
6.18527937	0.00000000
6.18527937	4.98039198
6.18928528	5.00000000
6.19329119	5.00000000
6.19734621	3.98039222
6.19734621	0.00000000
6.20153236	0.00000000
6.20556307	0.00000000
6.20957708	5.00000000
6.21371412	5.00000000
6.21784258	0.00000000
6.21784258	0.00000000
6.22187328	0.00000000
6.22594452	0.88235295
6.23002434	5.00000000
6.23002434	5.00000000
6.23432493	5.00000000
6.23839664	0.00000000
6.24248409	0.00000000
6.24248409	0.00000000
6.24721909	4.98039198
6.25103664	5.00000000
6.25492764	3.94117641
6.25876999	0.00000000
6.26293135	0.00000000
6.26293135	0.00000000
6.26697016	5.00000000
6.27101707	5.00000000
6.27514553	5.00000000
6.27514553	0.00000000
6.27935648	0.00000000
6.28340340	0.00000000
6.28747463	0.78431374
6.28747463	5.00000000
6.29152155	5.00000000
6.29576492	5.00000000
6.29576492	0.00000000
6.29978704	0.00000000
6.30383396	0.00000000
6.30804491	4.98039198
6.30804491	5.00000000
6.31229639	5.00000000
6.31622028	4.07843161
6.32024288	0.00000000
6.32024288	0.00000000
6.32439613	0.00000000
6.32850838	5.00000000
6.33253908	5.00000000
6.33657742	0.00000000
6.34078026	0.00000000
6.34078026	0.00000000
6.34485960	0.90196079
6.34887362	5.00000000
6.35299444	5.00000000
6.35299444	5.00000000
6.35748339	0.00000000
6.36128473	0.00000000
6.36524963	0.00000000
6.36524963	5.00000000
6.36948490	5.00000000
6.37376928	5.00000000
6.37781620	0.00000000
6.38169909	0.00000000
6.38593435	0.00000000
6.38593435	5.00000000
6.38994837	5.00000000
6.39394617	5.00000000
6.39809942	0.00000000
6.39809942	0.00000000
6.40214634	0.00000000
6.40625048	0.88235295
6.41039562	5.00000000
6.41039562	5.00000000
6.41440964	5.00000000
6.41858768	0.00000000
6.41858768	0.00000000
6.42269993	0.00000000
6.42679596	5.00000000
6.43089199	5.00000000
6.43089199	5.00000000
6.43518448	4.09803915
6.43917418	0.00000000
6.44316387	0.00000000
6.44316387	0.00000000
6.44718599	5.00000000
6.45137215	5.00000000
6.45545149	5.00000000
6.45545149	0.00000000
6.45946550	0.00000000
6.46358633	0.00000000
6.46358633	0.96078432
6.46769047	5.00000000
6.47173738	5.00000000
6.47592354	5.00000000
6.47592354	0.00000000
6.47992945	0.00000000
6.48418903	0.00000000
6.48830175	5.00000000
6.48830175	5.00000000
6.49233198	5.00000000
6.49673128	4.03921556
6.50078630	0.00000000
6.50461197	0.00000000
6.50871611	5.00000000
6.50871611	5.00000000
6.51277924	5.00000000
6.51686716	0.00000000
6.52088928	0.00000000
6.52088928	0.00000000
6.52502632	0.84313726
6.52919626	5.00000000
6.53341484	5.00000000
6.53341484	5.00000000
6.53728151	0.00000000
6.54145145	0.00000000
6.54556370	5.00000000
6.54982328	5.00000000
6.55383778	5.00000000
6.55383778	4.07843161
6.55786800	0.00000000
6.56200504	0.00000000
6.56605196	0.00000000
6.56605196	5.00000000
6.57005787	5.00000000
6.57420301	5.00000000
6.57842159	0.00000000
6.57842159	0.00000000
6.58241129	0.00000000
6.58658934	0.98039216
6.58658934	5.00000000
6.59063625	5.00000000
6.59482193	5.00000000
6.59881163	0.00000000
6.59881163	0.00000000
6.60290766	0.00000000
6.60701180	5.00000000
6.61125517	5.00000000
6.61125517	5.00000000
6.61523676	3.98039222
6.61935711	0.00000000
6.62351036	0.00000000
6.62755728	5.00000000
6.63160419	5.00000000
6.63160419	5.00000000
6.63569212	0.00000000
6.63983727	0.00000000
6.64394951	0.00000000
6.64394951	1.03921568
6.64800453	5.00000000
6.65228081	5.00000000
6.65623760	5.00000000
6.65623760	0.00000000
6.66040707	0.00000000
6.66435575	0.00000000
6.66862392	5.00000000
6.67256403	5.00000000
6.67675018	3.88235283
6.67675018	0.00000000
6.68083811	0.00000000
6.68498325	0.00000000
6.68898106	5.00000000
6.68898106	5.00000000
6.69306898	5.00000000
6.69708300	0.00000000
6.70140028	0.00000000
6.70140028	0.00000000
6.70532417	0.80392158
6.70940351	5.00000000
6.71351624	5.00000000
6.71757126	0.00000000
6.72171640	0.00000000
6.72171640	0.00000000
6.72583675	5.00000000
6.72985077	5.00000000
6.73415995	5.00000000
6.73415995	3.92156863
6.73811674	0.00000000
6.74212265	0.00000000
6.74647236	0.00000000
6.74647236	5.00000000
6.75039625	5.00000000
6.75445986	5.00000000
6.75445986	0.00000000
6.75854731	0.00000000
6.76271725	0.00000000
6.76673126	1.11764705
6.76673126	5.00000000
6.77081919	5.00000000
6.77491522	5.00000000
6.77906036	0.00000000
6.77906036	0.00000000
6.78311539	0.00000000
6.78720284	5.00000000
6.79128265	5.00000000
6.79549360	3.90196085
6.79957294	0.00000000
6.79957294	0.00000000
6.80360365	0.00000000
6.80783033	5.00000000
6.81200838	5.00000000
6.81200838	5.00000000
6.81595707	0.00000000
6.81993818	0.00000000
6.82410812	0.00000000
6.82410812	1.15686274
6.82817936	5.00000000
6.83225918	5.00000000
6.83631420	0.00000000
6.84050846	0.00000000
6.84456348	0.00000000
6.84456348	5.00000000
6.84865141	5.00000000
6.85277987	5.00000000
6.85692501	3.66666675
6.85692501	0.00000000
6.86120939	0.00000000
6.86509275	0.00000000
6.86925411	5.00000000
6.86925411	5.00000000
6.87350559	5.00000000
6.87747049	0.00000000
6.87747049	0.00000000
6.88146830	0.00000000
6.88545799	1.25490201
6.88979149	5.00000000
6.88979149	5.00000000
6.89378929	5.00000000
6.89787722	0.00000000
6.90205479	0.00000000
6.90205479	0.00000000
6.90601158	5.00000000
6.91018152	5.00000000
6.91420364	5.00000000
6.91420364	3.35294127
6.91838169	0.00000000
6.92248583	0.00000000
6.92248583	0.00000000
6.92663908	5.00000000
6.93062019	5.00000000
6.93498659	5.00000000
6.93498659	0.00000000
6.93891907	0.00000000
6.94289207	0.00000000
6.94699621	1.64705884
6.94699621	5.00000000
6.95123959	5.00000000
6.95522928	5.00000000
6.95933342	0.00000000
6.96335554	0.00000000
6.96793509	5.00000000
6.96793509	5.00000000
6.97158861	5.00000000
6.97578287	3.29411769
6.97970676	0.00000000
6.97970676	0.00000000
6.98438454	0.00000000
6.98797274	5.00000000
6.99226522	5.00000000
6.99226522	5.00000000
6.99646759	0.00000000
7.00044918	0.00000000
7.00432396	1.62745094
7.00841999	5.00000000
7.01250744	5.00000000
7.01250744	5.00000000
7.01659536	0.00000000
7.02063417	0.00000000
7.02488565	0.00000000
7.02488565	5.00000000
7.02889967	5.00000000
7.03317595	5.00000000
7.03709984	3.29411769
7.03709984	0.00000000
7.04124498	0.00000000
7.04538202	0.00000000
7.04538202	5.00000000
7.04944515	5.00000000
7.05345106	5.00000000
7.05762911	0.00000000
7.05762911	0.00000000
7.06191349	0.00000000
7.06583738	1.72549021
7.06981087	5.00000000
7.06981087	5.00000000
7.07394743	5.00000000
7.07828951	0.00000000
7.08218861	0.00000000
7.08617830	5.00000000
7.09050369	5.00000000
7.09050369	5.00000000
7.09444380	3.33333325
7.09854841	0.00000000
7.10258675	0.00000000
7.10258675	0.00000000
7.10686302	5.00000000
7.11090994	5.00000000
7.11503887	5.00000000
7.11503887	0.00000000
7.11900377	0.00000000
7.12327147	0.00000000
7.12732649	5.00000000
7.13130808	5.00000000
7.13535500	5.00000000
7.13535500	0.00000000
7.13950014	0.00000000
7.14351416	0.00000000
7.14767551	5.00000000
7.14767551	5.00000000
7.15179634	5.00000000
7.15594149	2.66666675
7.16004562	0.00000000
7.16004562	0.00000000
7.16401863	0.00000000
7.16823769	5.00000000
7.16823769	5.00000000
7.17240715	5.00000000
7.17644596	0.00000000
7.18047619	0.00000000
7.18047619	0.00000000
7.18461323	2.23529410
7.18882418	5.00000000
7.19278097	5.00000000
7.19278097	4.98039198
7.19685221	0.00000000
7.20099735	0.00000000
7.20512629	0.00000000
7.20512629	5.00000000
7.20909929	5.00000000
7.21324444	5.00000000
7.21324444	2.41176462
7.21739769	0.00000000
7.22144461	0.00000000
7.22549963	0.00000000
7.22549963	5.00000000
7.22957945	5.00000000
7.23388004	5.00000000
7.23792696	0.00000000
7.23792696	0.00000000
7.24193287	0.00000000
7.24611902	2.52941179
7.25028849	5.00000000
7.25420427	4.98039198
7.25832510	0.00000000
7.25832510	0.00000000
7.26238823	0.00000000
7.26645947	5.00000000
7.27051449	5.00000000
7.27051449	5.00000000
7.27461910	2.41176462
7.27890348	0.00000000
7.28308964	0.00000000
7.28308964	0.00000000
7.28694773	5.00000000
7.29101086	5.00000000
7.29535294	0.00000000
7.29931784	0.00000000
7.30336475	0.00000000
7.30336475	2.70588231
7.30759192	5.00000000
7.31208086	5.00000000
7.31583261	4.98039198
7.31583261	0.00000000
7.31974030	0.00000000
7.32382011	0.00000000
7.32809639	5.00000000
7.32809639	5.00000000
7.33206129	5.00000000
7.33607531	2.03921580
7.33607531	0.00000000
7.34023666	0.00000000
7.34432459	0.00000000
7.34837961	5.00000000
7.34837961	5.00000000
7.35247564	5.00000000
7.35671091	0.00000000
7.36092138	0.00000000
7.36092138	0.00000000
7.36477184	2.82352948
7.36893320	5.00000000
7.37325048	4.98039198
7.37718248	0.00000000
7.38127041	0.00000000
7.38127041	0.00000000
7.38524342	5.00000000
7.38939714	5.00000000
7.39354229	5.00000000
7.39354229	2.13725495
7.39758062	0.00000000
7.40161943	0.00000000
7.40582991	0.00000000
7.40582991	5.00000000
7.40979528	5.00000000
7.41394043	5.00000000
7.41810989	0.00000000
7.42227125	0.00000000
7.42631817	2.68627453
7.42631817	5.00000000
7.43034887	5.00000000
7.43457603	4.98039198
7.43863106	0.00000000
7.43863106	0.00000000
7.44263697	0.00000000
7.44674110	5.00000000
7.45106649	5.00000000
7.45106649	5.00000000
7.45512962	2.23529410
7.45895529	0.00000000
7.45895529	0.00000000
7.46308422	0.00000000
7.46727037	5.00000000
7.47134161	5.00000000
7.47134161	5.00000000
7.47533941	0.00000000
7.47947645	0.00000000
7.48372793	0.00000000
7.48372793	2.68627453
7.48775005	5.00000000
7.49176407	5.00000000
7.49595022	4.98039198
7.49595022	0.00000000
7.50010347	0.00000000
7.50418329	0.00000000
7.50418329	5.00000000
7.50814009	5.00000000
7.51233435	5.00000000
7.51638126	1.66666663
7.51638126	0.00000000
7.52038717	0.00000000
7.52447510	0.00000000
7.52875090	5.00000000
7.52875090	5.00000000
7.53287983	5.00000000
7.53680372	0.00000000
7.54089165	0.00000000
7.54508591	3.11764717
7.54923916	5.00000000
7.54923916	5.00000000
7.55324507	4.98039198
7.55748844	0.00000000
7.56184673	0.00000000
7.56184673	0.00000000
7.56559038	5.00000000
7.56971931	5.00000000
7.57370901	5.00000000
7.57370901	2.01960778
7.57791138	0.00000000
7.58190060	0.00000000
7.58591509	5.00000000
7.59003544	5.00000000
7.59420538	5.00000000
7.59420538	0.00000000
7.59823561	0.00000000
7.60229874	0.00000000
7.60673094	3.37254906
7.60673094	5.00000000
7.61075306	5.00000000
7.61462784	4.96078444
7.61896133	0.00000000
7.61896133	0.00000000
7.62299204	0.00000000
7.62709618	5.00000000
7.62709618	5.00000000
7.63110209	5.00000000
7.63518953	1.72549021
7.63937569	0.00000000
7.63937569	0.00000000
7.64335728	0.01960784
7.64746141	5.00000000
7.65151644	5.00000000
7.65151644	5.00000000
7.65564537	0.00000000
7.65964270	0.00000000
7.66385365	3.09803915
7.66783476	5.00000000
7.67215204	5.00000000
7.67215204	4.90196085
7.67614985	0.00000000
7.68023777	0.00000000
7.68447304	0.00000000
7.68447304	5.00000000
7.68865061	5.00000000
7.69250917	5.00000000
7.69660521	1.66666663
7.69660521	0.00000000
7.70087337	0.00000000
7.70485449	0.03921569
7.70881939	5.00000000
7.71296453	5.00000000
7.71713448	0.00000000
7.71713448	0.00000000
7.72115660	0.00000000
7.72527695	3.45098042
7.72937298	5.00000000
7.72937298	5.00000000
7.73353481	4.90196085
7.73763084	0.00000000
7.74166918	0.00000000
7.74166918	0.00000000
7.74588823	5.00000000
7.75016451	5.00000000
7.75016451	5.00000000
7.75399017	1.62745094
7.75808620	0.00000000
7.76226425	0.00000000
7.76226425	0.03921569
7.76621246	5.00000000
7.77021837	5.00000000
7.77441263	5.00000000
7.77441263	0.00000000
7.77882004	0.00000000
7.78270292	0.00000000
7.78675795	3.66666675
7.78675795	5.00000000
7.79082155	5.00000000
7.79503202	4.88235283
7.79503202	0.00000000
7.79903793	0.00000000
7.80305195	0.00000000
7.80736923	5.00000000
7.80736923	5.00000000
7.81161261	5.00000000
7.81546307	1.43137252
7.81946039	0.00000000
7.81946039	0.00000000
7.82354021	0.05882353
7.82776737	5.00000000
7.83188772	5.00000000
7.83589363	0.00000000
7.84004688	0.00000000
7.84004688	0.00000000
7.84404469	3.56862736
7.84815741	5.00000000
7.85226154	5.00000000
7.85226154	4.82352924
7.85702896	0.00000000
7.86064196	0.00000000
7.86460686	0.00000000
7.86460686	5.00000000
7.86859608	5.00000000
7.87293816	5.00000000
7.87693548	0.00000000
7.88099051	0.00000000
7.88500500	0.11764706
7.88500500	5.00000000
7.88923168	5.00000000
7.89320517	5.00000000
7.89734173	0.00000000
7.89734173	0.00000000
7.90136433	0.00000000
7.90554237	3.82352948
7.90955639	5.00000000
7.90955639	5.00000000
7.91368484	4.78431368
7.91783857	0.00000000
7.91783857	0.00000000
7.92207336	0.00000000
7.92610407	5.00000000
7.93019199	5.00000000
7.93019199	5.00000000
7.93452549	0.74509805
7.93846560	0.00000000
7.94247150	0.00000000
7.94247150	0.17647059
7.94646120	5.00000000
7.95060635	5.00000000
7.95468616	0.00000000
7.95870829	0.00000000
7.96283722	0.00000000
7.96283722	4.03921556
7.96694946	5.00000000
7.97098780	5.00000000
7.97510862	4.74509811
7.97510862	0.00000000
7.97918844	0.00000000
7.98348904	0.00000000
7.98758507	5.00000000
7.98758507	5.00000000
7.99160719	5.00000000
7.99590826	1.11764705
8.00000381	0.00000000
8.00392818	0.15686275
8.00791740	5.00000000
8.00791740	5.00000000
8.01208687	5.00000000
8.01610184	0.00000000
8.02017307	0.00000000
8.02017307	0.00000000
8.02423573	4.17647076
8.02844715	5.00000000
8.03260040	5.00000000
8.03260040	4.74509811
8.03659821	0.00000000
8.04065323	0.00000000
8.04065323	0.00000000
8.04491234	5.00000000
8.04895973	5.00000000
8.05297375	5.00000000
8.05297375	0.88235295
8.05731487	0.00000000
8.06198502	0.00000000
8.06567955	0.15686275
8.06567955	5.00000000
8.06944752	5.00000000
8.07350254	5.00000000
8.07770538	0.00000000
8.07770538	0.00000000
8.08171082	0.00000000
8.08569241	4.00000000
8.08569241	5.00000000
8.08979702	5.00000000
8.09390926	4.66666651
8.09803772	0.00000000
8.09803772	0.00000000
8.10209274	0.00000000
8.10668850	5.00000000
8.11045647	5.00000000
8.11045647	5.00000000
8.11443806	0.33333334
8.11850929	0.00000000
8.12304020	0.27450982
8.12687397	5.00000000
8.13091183	5.00000000
8.13091183	5.00000000
8.13484478	0.00000000
8.13907146	0.00000000
8.14309406	0.00000000
8.14309406	4.29411745
8.14720631	5.00000000
8.15126896	5.00000000
8.15539837	4.68627453
8.15539837	0.00000000
8.15946102	0.00000000
8.16357422	0.00000000
8.16770267	5.00000000
8.17188835	5.00000000
8.17596054	0.62745100
8.17596054	0.00000000
8.17993355	0.00000000
8.18434048	0.31372550
8.18862534	5.00000000
8.18862534	5.00000000
8.19234371	5.00000000
8.19638252	0.00000000
8.20047092	0.00000000
8.20047092	0.00000000
8.20454979	4.78431368
8.20863819	5.00000000
8.20863819	5.00000000
8.21272564	4.64705896
8.21685410	0.00000000
8.22099972	0.00000000
8.22099972	0.00000000
8.22505474	5.00000000
8.22910118	5.00000000
8.23336124	5.00000000
8.23336124	0.52941179
8.23737526	0.00000000
8.24140549	0.00000000
8.24549389	5.00000000
8.24970436	5.00000000
8.25377560	5.00000000
8.25377560	0.00000000
8.25783920	0.00000000
8.26189423	0.00000000
8.26603127	4.62745094
8.26603127	5.00000000
8.27004528	5.00000000
8.27412510	4.47058821
8.27831078	0.00000000
8.27831078	0.00000000
8.28252125	0.00000000
8.28648663	5.00000000
8.29047585	5.00000000
8.29477692	0.27450982
8.29897976	0.00000000
8.29897976	0.00000000
8.30287075	0.43137255
8.30700779	5.00000000
8.31156254	5.00000000
8.31156254	5.00000000
8.31524086	0.00000000
8.31924629	0.00000000
8.32325268	0.00000000
8.32325268	4.86274529
8.32747078	5.00000000
8.33150196	5.00000000
8.33150196	4.52941179
8.33564663	0.00000000
8.33966064	0.00000000
8.34387112	0.00000000
8.34387112	5.00000000
8.34784508	5.00000000
8.35195732	5.00000000
8.35626602	0.27450982
8.35626602	0.00000000
8.36035347	0.00000000
8.36430264	0.41176471
8.36842251	5.00000000
8.36842251	5.00000000
8.37266636	5.00000000
8.37677860	0.00000000
8.37677860	0.00000000
8.38080120	0.00000000
8.38473320	4.62745094
8.38897705	5.00000000
8.38897705	5.00000000
8.39296627	4.49019623
8.39708710	0.00000000
8.40119076	0.00000000
8.40119076	0.00000000
8.40532780	5.00000000
8.40937519	5.00000000
8.41346264	0.07843138
8.41751766	0.00000000
8.42188358	0.00000000
8.42188358	0.39215687
8.42575836	5.00000000
8.43005180	5.00000000
8.43456554	5.00000000
8.43456554	0.00000000
8.43828392	0.00000000
8.44215870	0.00000000
8.44650936	4.74509811
8.44650936	5.00000000
8.45033455	5.00000000
8.45445538	4.52941179
8.45850182	0.00000000
8.46281147	0.00000000
8.46676826	5.00000000
8.46676826	5.00000000
8.47083092	5.00000000
8.47487831	0.15686275
8.47899818	0.00000000
8.47899818	0.00000000
8.48330784	0.41176471
8.48723984	5.00000000
8.49127007	5.00000000
8.49127007	5.00000000
8.49545670	0.00000000
8.49964237	0.00000000
8.49964237	0.00000000
8.50368118	4.98039198
8.50763798	5.00000000
8.51195526	5.00000000
8.51195526	4.47058821
8.51591969	0.00000000
8.51999092	0.00000000
8.52407074	0.00000000
8.52407074	5.00000000
8.52830601	5.00000000
8.53234482	5.00000000
8.53642464	0.00000000
8.54038143	0.00000000
8.54465771	0.52941179
8.54465771	5.00000000
8.54886818	5.00000000
8.55270195	5.00000000
8.55701065	0.00000000
8.55701065	0.00000000
8.56145954	0.00000000
8.56545734	4.98039198
8.56931496	5.00000000
8.56931496	5.00000000
8.57318974	4.43137264
8.57736778	0.00000000
8.58149719	0.00000000
8.58547020	5.00000000
8.58957386	5.00000000
8.58957386	5.00000000
8.59385014	0.00000000
8.59779930	0.00000000
8.60191154	0.00000000
8.60191154	0.64705884
8.60604000	5.00000000
8.61013603	5.00000000
8.61419106	5.00000000
8.61419106	0.00000000
8.61839390	0.00000000
8.62241554	0.00000000
8.62241554	4.98039198
8.62652016	5.00000000
8.63064861	5.00000000
8.63478565	4.35294104
8.63478565	0.00000000
8.63878345	0.00000000
8.64286327	0.00000000
8.64694309	5.00000000
8.64694309	5.00000000
8.65113735	5.00000000
8.65537262	0.00000000
8.65931225	0.00000000
8.65931225	0.00000000
8.66335964	0.64705884
8.66741467	5.00000000
8.66741467	5.00000000
8.67163372	5.00000000
8.67565536	0.00000000
8.67982578	0.00000000
8.67982578	0.00000000
8.68423271	4.98039198
8.68801785	5.00000000
8.69204807	5.00000000
8.69204807	4.21568632
8.69619274	0.00000000
8.70022392	0.00000000
8.70440960	5.00000000
8.70840740	5.00000000
8.71289635	5.00000000
8.71289635	0.00000000
8.71699238	0.00000000
8.72083473	0.00000000
8.72525787	0.64705884
8.72525787	5.00000000
8.72905159	5.00000000
8.73300743	5.00000000
8.73736572	0.00000000
8.73736572	0.00000000
8.74137974	0.00000000
8.74556637	4.98039198
8.74976826	5.00000000
8.75371742	4.23529434
8.75759220	0.00000000
8.75759220	0.00000000
8.76180267	0.00000000
8.76595592	5.00000000
8.77013397	5.00000000
8.77013397	5.00000000
8.77404976	0.00000000
8.77945614	0.00000000
8.78215981	0.00000000
8.78215981	1.01960790
8.79208851	5.00000000
8.79280090	5.00000000
8.79280090	5.00000000
8.79460335	0.00000000
8.79884720	0.00000000
8.80268097	0.00000000
8.80268097	5.00000000
8.80676079	5.00000000
8.81142139	5.00000000
8.81503391	3.96078420
8.81503391	0.00000000
8.81927776	0.00000000
8.82311153	0.00000000
8.82762527	5.00000000
8.83162308	5.00000000
8.83565331	0.00000000
8.83565331	0.00000000
8.83989716	0.00000000
8.84378052	0.96078432
8.84791660	5.00000000
8.84791660	5.00000000
8.85189819	5.00000000
8.85604382	0.00000000
8.86091805	0.00000000
8.86091805	0.00000000
8.86412907	5.00000000
8.86874962	5.00000000
8.87251759	3.96078420
8.87667084	0.00000000
8.88061142	0.00000000
8.88061142	0.00000000
8.88460922	5.00000000
8.88885212	5.00000000
8.89285851	5.00000000
8.89285851	0.00000000
8.89692974	0.00000000
8.90089512	0.00000000
8.90529346	0.94117647
8.90529346	5.00000000
8.90925026	5.00000000
8.91331387	5.00000000
8.91331387	0.00000000
8.91727066	0.00000000
8.92171860	0.00000000
8.92555237	5.00000000
8.92555237	5.00000000
8.92965698	5.00000000
8.93387604	3.72549009
8.93794727	0.00000000
8.93794727	0.00000000
8.94200993	0.00000000
8.94626236	5.00000000
8.95015335	5.00000000
8.95015335	5.00000000
8.95436382	0.00000000
8.95835304	0.00000000
8.95835304	0.00000000
8.96245766	1.05882359
8.96652126	5.00000000
8.97075653	5.00000000
8.97075653	5.00000000
8.97484398	0.00000000
8.97891521	0.00000000
8.98391247	0.00000000
8.98391247	5.00000000
8.98731995	5.00000000
8.99122810	5.00000000
8.99527454	0.00000000
8.99989510	0.00000000
9.00355721	0.00000000
9.00355721	5.00000000
9.00748920	5.00000000
9.01156902	5.00000000
9.01569748	0.00000000
9.01569748	0.00000000
9.01973629	0.00000000
9.02388954	1.17647064
9.02808380	5.00000000
9.02808380	5.00000000
9.03210640	5.00000000
9.03621006	0.00000000
9.04019928	0.00000000
9.04442692	5.00000000
9.04848957	5.00000000
9.04848957	5.00000000
9.05259418	3.52941179
9.05657578	0.00000000
9.06070423	0.00000000
9.06070423	0.00000000
9.06488228	5.00000000
9.06889629	5.00000000
9.07300854	5.00000000
9.07300854	0.00000000
9.07733440	0.00000000
9.08134842	0.00000000
9.08134842	1.47058821
9.08537865	5.00000000
9.08938408	5.00000000
9.09370136	5.00000000
9.09370136	0.00000000
9.09768295	0.00000000
9.10177898	0.00000000
9.10590744	5.00000000
9.10590744	5.00000000
9.11005306	5.00000000
9.11431313	3.29411769
9.11837578	0.00000000
9.12238216	0.00000000
9.12645340	5.00000000
9.12645340	5.00000000
9.13040161	5.00000000
9.13448143	0.00000000
9.13855267	0.00000000
9.13855267	0.00000000
9.14259148	1.62745094
9.14672852	5.00000000
9.15089035	5.00000000
9.15089035	5.00000000
9.15500259	0.00000000
9.15902424	0.00000000
9.16317844	5.00000000
9.16724968	5.00000000
9.17143536	5.00000000
9.17143536	3.47058821
9.17552376	0.00000000
9.17950439	0.00000000
9.18358421	0.00000000
9.18358421	5.00000000
9.18779469	5.00000000
9.19189930	5.00000000
9.19590473	0.00000000
9.19590473	0.00000000
9.19998455	0.00000000
9.20407200	1.56862748
9.20407200	5.00000000
9.20809460	5.00000000
9.21231365	5.00000000
9.21634388	0.00000000
9.21634388	0.00000000
9.22047329	0.00000000
9.22446251	5.00000000
9.22864819	5.00000000
9.22864819	5.00000000
9.23275280	3.25490189
9.23697948	0.00000000
9.24099350	0.00000000
9.24099350	0.00000000
9.24508190	5.00000000
9.24931717	5.00000000
9.24931717	5.00000000
9.25329781	0.00000000
9.25724697	0.00000000
9.26148224	0.00000000
9.26148224	1.56862748
9.26549625	5.00000000
9.26955128	5.00000000
9.27366352	5.00000000
9.27366352	0.00000000
9.27779198	0.00000000
9.28203583	0.00000000
9.28613949	5.00000000
9.29003143	5.00000000
9.29424191	3.19607854
9.29424191	0.00000000
9.29834557	0.00000000
9.30236816	0.00000000
9.30647278	5.00000000
9.30647278	5.00000000
9.31056023	5.00000000
9.31477070	0.00000000
9.31876850	0.00000000
9.31876850	0.00000000
9.32282352	1.60784316
9.32710838	5.00000000
9.33107281	5.00000000
9.33509541	0.00000000
9.33915043	0.00000000
9.33915043	0.00000000
9.34330368	5.00000000
9.34739971	5.00000000
9.35150433	5.00000000
9.35150433	3.17647052
9.35579681	0.00000000
9.35977745	0.00000000
9.36405373	0.00000000
9.36405373	5.00000000
9.36796188	5.00000000
9.37200832	5.00000000
9.37200832	0.00000000
9.37622738	0.00000000
9.38020039	0.00000000
9.38424683	1.94117641
9.38424683	5.00000000
9.38845825	5.00000000
9.39247227	5.00000000
9.39665031	0.00000000
9.39665031	0.00000000
9.40058231	0.00000000
9.40489960	5.00000000
9.40888023	5.00000000
9.40888023	5.00000000
9.41293526	3.15686274
9.41706467	0.00000000
9.41706467	0.00000000
9.42120171	0.00000000
9.42533875	5.00000000
9.42936897	5.00000000
9.42936897	5.00000000
9.43349743	0.00000000
9.43774891	0.00000000
9.44182110	0.00000000
9.44182110	1.94117641
9.44574451	5.00000000
9.45016003	5.00000000
9.45401001	0.00000000
9.45807362	0.00000000
9.46211243	0.00000000
9.46211243	5.00000000
9.46627426	5.00000000
9.47030449	5.00000000
9.47434330	2.92156863
9.47434330	0.00000000
9.47849655	0.00000000
9.48418999	0.00000000
9.48683548	5.00000000
9.48683548	5.00000000
9.49082565	5.00000000
9.49496174	0.00000000
9.49911594	0.00000000
9.50316238	1.92156863
9.50718498	5.00000000
9.50718498	5.00000000
9.51123142	5.00000000
9.51535225	0.00000000
9.51945591	0.00000000
9.51945591	0.00000000
9.52354431	5.00000000
9.52765656	5.00000000
9.53184223	5.00000000
9.53184223	2.80392146
9.53597164	0.00000000
9.53991127	0.00000000
9.53991127	0.00000000
9.54434395	5.00000000
9.54834938	5.00000000
9.55256844	5.00000000
9.55256844	0.00000000
9.55633640	0.00000000
9.56047344	0.00000000
9.56470871	2.11764717
9.56470871	5.00000000
9.56861687	5.00000000
9.57265472	5.00000000
9.57698059	0.00000000
9.58098602	0.00000000
9.58496761	5.00000000
9.58496761	5.00000000
9.58918667	5.00000000
9.59322548	2.72549009
9.59728813	0.00000000
9.59728813	0.00000000
9.60132694	0.00000000
9.60548878	5.00000000
9.60966682	5.00000000
9.60966682	5.00000000
9.61377048	0.00000000
9.61788273	0.00000000
9.62200356	2.27450991
9.62636185	5.00000000
9.63024521	5.00000000
9.63024521	4.98039198
9.63410282	0.00000000
9.63834667	0.00000000
9.64236069	0.00000000
9.64236069	5.00000000
9.64650631	5.00000000
9.65048695	5.00000000
9.65482903	2.66666675
9.65482903	0.00000000
9.65873623	0.00000000
9.66287327	0.00000000
9.66287327	5.00000000
9.66688728	5.00000000
9.67109013	5.00000000
9.67521095	0.00000000
9.67521095	0.00000000
9.67920876	0.00000000
9.68328762	2.25490189
9.68760490	5.00000000
9.68760490	5.00000000
9.69164371	4.98039198
9.69560051	0.00000000
9.69976997	0.00000000
9.69976997	0.00000000
9.70412827	5.00000000
9.70804405	5.00000000
9.70804405	5.00000000
9.71205807	2.05882359
9.71645737	0.00000000
9.72066021	0.00000000
9.72066021	0.00000000
9.72449398	5.00000000
9.72850800	5.00000000
9.73256302	5.00000000
9.73256302	0.00000000
9.73658562	0.00000000
9.74061584	0.00000000
9.74485111	5.00000000
9.74884892	5.00000000
9.75296116	4.98039198
9.75296116	0.00000000
9.75714684	0.00000000
9.76122665	0.00000000
9.76539612	5.00000000
9.76539612	5.00000000
9.76935291	5.00000000
9.77352333	2.47058821
9.77783966	0.00000000
9.77783966	0.00000000
9.78186226	0.00000000
9.78581905	5.00000000
9.78999710	5.00000000
9.79610825	0.00000000
9.79819679	0.00000000
9.79819679	0.00000000
9.80212975	2.50980401
9.80625820	5.00000000
9.81030464	5.00000000
9.81030464	4.98039198
9.81442547	0.00000000
9.81847286	0.00000000
9.82261753	0.00000000
9.82261753	5.00000000
9.82674599	5.00000000
9.83094025	5.00000000
9.83094025	2.09803915
9.83483982	0.00000000
9.83898544	0.00000000
9.84309769	0.00000000
9.84309769	5.00000000
9.84716892	5.00000000
9.85120773	5.00000000
9.85550022	0.00000000
9.85550022	0.00000000
9.85951424	0.00000000
9.86364269	2.60784316
9.86769772	5.00000000
9.87173653	4.98039198
9.87625027	0.00000000
9.87625027	0.00000000
9.88014984	0.00000000
9.88419724	5.00000000
9.88826847	5.00000000
9.88826847	5.00000000
9.89225006	1.96078432
9.89647675	0.00000000
9.90041733	0.00000000
9.90041733	0.00000000
9.90466022	5.00000000
9.90860939	5.00000000
9.91273785	0.00000000
9.91677666	0.00000000
9.92092133	0.00000000
9.92092133	2.80392146
9.92513275	5.00000000
9.92912960	5.00000000
9.93320179	4.98039198
9.93320179	0.00000000
9.93733025	0.00000000
9.94155693	0.00000000
9.94547272	5.00000000
9.94547272	5.00000000
9.94968414	5.00000000
9.95391083	2.15686274
9.95391083	0.00000000
9.95788383	0.00000000
9.96183205	0.00000000
9.96609211	5.00000000
9.96609211	5.00000000
9.97033596	5.00000000
9.97426796	0.00000000
9.97851944	0.00000000
9.97851944	0.00000000
9.98257446	3.19607854
9.98667908	5.00000000
9.99083233	5.00000000
9.99083233	5.00000000
9.99509239	0.00000000
9.99890900	0.00000000
9.99890900	0.00000000
10.00298882	5.00000000
10.00701141	5.00000000
10.01110744	5.00000000
10.01110744	2.03921580
10.01506424	0.00000000
10.01930714	0.00000000
10.02333832	0.00000000
10.02333832	5.00000000
10.02787590	5.00000000
10.03151321	5.00000000
10.03565884	0.00000000
10.03970528	0.00000000
10.04392433	3.15686274
10.04392433	5.00000000
10.04801273	5.00000000
10.05202675	4.98039198
10.05602360	0.00000000
10.05602360	0.00000000
10.06023502	0.00000000
10.06446171	5.00000000
10.06864834	5.00000000
10.06864834	5.00000000
10.07251453	1.92156863
10.07670879	0.00000000
10.08069801	0.00000000
10.08481884	5.00000000
10.08877563	5.00000000
10.08877563	5.00000000
10.09295368	0.00000000
10.09703350	0.00000000
10.10133362	0.00000000
10.10133362	3.37254906
10.10525799	5.00000000
10.10949326	5.00000000
10.11346626	4.98039198
10.11346626	0.00000000
10.11746407	0.00000000
10.12167454	0.00000000
10.12167454	5.00000000
10.12586880	5.00000000
10.13009644	5.00000000
10.13406086	1.54901958
10.13406086	0.00000000
10.13809967	0.00000000
10.14211369	0.00000000
10.14662743	5.00000000
10.14662743	5.00000000
10.15046978	5.00000000
10.15457344	0.00000000
10.15851402	0.00000000
10.16254425	3.37254906
10.16660786	5.00000000
10.16660786	5.00000000
10.17110538	4.96078444
10.17501259	0.00000000
10.17903519	0.00000000
10.17903519	0.00000000
10.18304920	5.00000000
10.18730927	5.00000000
10.19156075	5.00000000
10.19156075	1.41176474
10.19540310	0.00000000
10.19947433	0.00000000
10.20372581	5.00000000
10.20765781	5.00000000
10.21173763	5.00000000
10.21173763	0.00000000
10.21584225	0.00000000
10.21994591	0.00000000
10.22411537	3.52941179
10.22411537	5.00000000
10.22813797	5.00000000
10.23223400	4.94117641
10.23648548	0.00000000
10.23648548	0.00000000
10.24047470	0.00000000
10.24455452	5.00000000
10.24455452	5.00000000
10.24867535	5.00000000
10.25276279	1.56862748
10.25681782	0.00000000
10.25681782	0.00000000
10.26087284	0.00000000
10.26500225	5.00000000
10.26908207	5.00000000
10.26908207	5.00000000
10.27315331	0.00000000
10.27744579	0.00000000
10.28157425	0.00000000
10.28157425	3.74509811
10.28547382	5.00000000
10.28956127	5.00000000
10.28956127	4.88235283
10.29736900	0.00000000
10.29783535	0.00000000
10.30200481	0.00000000
10.30200481	5.00000000
10.30602741	5.00000000
10.31006622	5.00000000
10.31439972	1.43137252
10.31439972	0.00000000
10.31831551	0.00000000
10.32232094	0.05882353
10.32663822	5.00000000
10.33057880	5.00000000
10.33463383	0.00000000
10.33463383	0.00000000
10.33867264	0.00000000
10.34287548	3.84313726
10.34698772	5.00000000
10.34698772	5.00000000
10.35092831	4.96078444
10.35507298	0.00000000
10.35952950	0.00000000
10.35952950	0.00000000
10.36341286	5.00000000
10.36745071	5.00000000
10.37154675	1.09803927
10.37585640	0.00000000
10.37981319	0.00000000
10.37981319	0.03921569
10.38373661	5.00000000
10.38787365	5.00000000
10.39201069	5.00000000
10.39201069	0.00000000
10.39613914	0.00000000
10.40014553	0.00000000
10.40435600	3.90196085
10.40435600	5.00000000
10.40833759	5.00000000
10.41244984	4.88235283
10.41244984	0.00000000
10.41663551	0.00000000
10.42079735	0.00000000
10.42487717	5.00000000
10.42487717	5.00000000
10.42889118	5.00000000
10.43294621	0.92156863
10.43726349	0.00000000
10.43726349	0.00000000
10.44119549	0.01960784
10.44529152	5.00000000
10.44941235	5.00000000
10.45352459	0.00000000
10.45754719	0.00000000
10.45754719	0.00000000
10.46164322	3.94117641
10.46576309	5.00000000
10.46990013	5.00000000
10.46990013	4.84313726
10.47385693	0.00000000
10.47806740	0.00000000
10.48218822	0.00000000
10.48218822	5.00000000
10.48630047	5.00000000
10.49037170	5.00000000
10.49437809	0.00000000
10.49856377	0.00000000
10.50264359	0.05882353
10.50264359	5.00000000
10.50671482	5.00000000
10.51078701	5.00000000
10.51493168	0.00000000
10.51493168	0.00000000
10.51892090	0.00000000
10.52315617	4.21568632
10.52721977	5.00000000
10.52721977	5.00000000
10.53167629	4.84313726
10.53545284	0.00000000
10.53545284	0.00000000
10.53938484	0.00000000
10.54353809	5.00000000
10.54788017	5.00000000
10.54788017	5.00000000
10.55175495	0.96078432
10.55584240	0.00000000
10.56008625	0.00000000
10.56008625	0.13725491
10.56418991	5.00000000
10.56822872	5.00000000
10.57224274	5.00000000
10.57224274	0.00000000
10.57643700	0.00000000
10.58047581	0.00000000
10.58047581	4.39215708
10.58451462	5.00000000
10.58858585	5.00000000
10.59275532	4.80392170
10.59275532	0.00000000
10.59687614	0.00000000
10.60084152	0.00000000
10.60508442	5.00000000
10.60508442	5.00000000
10.60948372	5.00000000
10.61326885	0.60784316
10.61721706	0.00000000
10.62143612	0.17647059
10.62561417	5.00000000
10.62561417	5.00000000
10.62973404	5.00000000
10.63360882	0.00000000
10.63782024	0.00000000
10.63782024	0.00000000
10.64206314	4.68627453
10.64615917	5.00000000
10.65014076	5.00000000
10.65014076	4.74509811
10.65435982	0.00000000
10.65847969	0.00000000
10.66258430	5.00000000
10.66654968	5.00000000
10.67066193	5.00000000
10.67066193	0.37254903
10.67483139	0.00000000
10.67900944	0.00000000
10.68326092	0.19607843
10.68326092	5.00000000
10.68711948	5.00000000
10.69123173	5.00000000
10.69527054	0.00000000
10.69527054	0.00000000
10.69920254	0.00000000
10.70325756	4.72549009
10.70325756	5.00000000
10.70739460	5.00000000
10.71163845	4.64705896
10.71566868	0.00000000
10.71566868	0.00000000
10.71968269	0.00000000
10.72374535	5.00000000
10.72783375	5.00000000
10.72783375	5.00000000
10.73199558	0.29411766
10.73626328	0.00000000
10.74017906	0.23529412
10.74459457	5.00000000
10.74851799	5.00000000
10.74851799	5.00000000
10.75255680	0.00000000
10.75657940	0.00000000
10.76074886	0.00000000
10.76074886	4.78431368
10.76490211	5.00000000
10.76920319	5.00000000
10.77323341	4.70588255
10.77323341	0.00000000
10.77807522	0.00000000
10.78163052	0.00000000
10.78552151	5.00000000
10.78973198	5.00000000
10.79401684	0.23529412
10.79401684	0.00000000
10.79787540	0.00000000
10.80201244	0.29411766
10.80640316	5.00000000
10.80640316	5.00000000
10.81043339	5.00000000
10.81408691	0.00000000
10.81822395	0.00000000
10.81822395	0.00000000
10.82220554	4.96078444
10.82626057	5.00000000
10.82626057	5.00000000
10.83024979	4.66666651
10.83441925	0.00000000
10.83861446	0.00000000
10.83861446	0.00000000
10.84275055	5.00000000
10.84669971	5.00000000
10.85078716	5.00000000
10.85078716	0.01960784
10.85491657	0.00000000
10.86006927	0.00000000
10.86338615	0.25490198
10.86338615	5.00000000
10.86711407	5.00000000
10.87132454	5.00000000
10.87132454	0.00000000
10.87558460	0.00000000
10.87952518	0.00000000
10.88363743	4.98039198
10.88363743	5.00000000
10.88765144	5.00000000
10.89192772	4.64705896
10.89606476	0.00000000
10.89606476	0.00000000
10.89998055	0.00000000
10.90415001	5.00000000
10.90841770	5.00000000
10.91238308	0.03921569
10.91666698	0.00000000
10.91666698	0.00000000
10.92074680	0.37254903
10.92471981	5.00000000
10.92882442	5.00000000
10.92882442	5.00000000
10.93287945	0.00000000
10.93703270	0.00000000
10.94105530	0.00000000
10.94105530	4.98039198
10.94509411	5.00000000
10.94906712	5.00000000
10.95322037	0.00000000
10.95736504	0.00000000
10.96148586	0.00000000
10.96148586	5.00000000
10.96553230	5.00000000
10.96969414	5.00000000
10.97369194	0.00000000
10.97369194	0.00000000
10.97778797	0.00000000
10.98204803	0.43137255
10.98615170	5.00000000
10.98615170	5.00000000
10.99007607	5.00000000
10.99409008	0.00000000
10.99409008	0.00000000
10.99848938	0.00000000
11.00243759	4.98039198
11.00636959	5.00000000
11.00636959	5.00000000
11.01059723	4.43137264
11.01472569	0.00000000
11.01898575	0.00000000
11.01898575	0.00000000
11.02326202	5.00000000
11.02790642	5.00000000
11.03169918	0.00000000
11.03534508	0.00000000
11.03961277	0.00000000
11.03961277	0.37254903
11.04375839	5.00000000
11.04812431	5.00000000
11.05212212	5.00000000
11.05212212	0.00000000
11.05632496	0.00000000
11.06010914	0.00000000
11.06400871	4.98039198
11.06400871	5.00000000
11.06803894	5.00000000
11.07209396	4.39215708
11.07610798	0.00000000
11.08012199	0.00000000
11.08427525	5.00000000
11.08427525	5.00000000
11.08837986	5.00000000
11.09273815	0.00000000
11.09658051	0.00000000
11.09658051	0.00000000
11.10075760	0.54901963
11.10481262	5.00000000
11.10890865	5.00000000
11.10890865	5.00000000
11.11327553	0.00000000
11.11701870	0.00000000
11.11701870	0.00000000
11.12105751	4.98039198
11.12545681	5.00000000
11.12947083	5.00000000
11.12947083	4.31372547
11.13340282	0.00000000
11.13769531	0.00000000
11.14193916	0.00000000
11.14193916	5.00000000
11.14587975	5.00000000
11.15001678	5.00000000
11.15449715	0.00000000
11.15449715	0.00000000
11.15856075	0.00000000
11.16243553	0.58823532
11.16243553	5.00000000
11.16644192	5.00000000
11.17088127	5.00000000
11.17500210	0.00000000
11.17500210	0.00000000
11.17918015	0.00000000
11.18299770	4.98039198
11.18687248	5.00000000
11.18687248	5.00000000
11.19086170	4.31372547
11.19488430	0.00000000
11.19909477	0.00000000
11.20306015	5.00000000
11.20721340	5.00000000
11.20721340	5.00000000
11.21132565	0.00000000
11.21542931	0.00000000
11.21946812	0.00000000
11.21946812	0.64705884
11.22349834	5.00000000
11.22757053	5.00000000
11.23173141	5.00000000
11.23173141	0.00000000
11.23602390	0.00000000
11.23998928	0.00000000
11.24394608	5.00000000
11.24822998	5.00000000
11.25234318	4.09803915
11.25234318	0.00000000
11.25627518	0.00000000
11.26048565	0.00000000
11.26467991	5.00000000
11.26467991	5.00000000
11.26866913	5.00000000
11.27286339	0.00000000
11.27728748	0.00000000
11.27728748	0.00000000
11.28139114	0.78431374
11.28534031	5.00000000
11.28534031	5.00000000
11.28933811	5.00000000
11.29365540	0.00000000
11.29787350	0.00000000
11.29787350	0.00000000
11.30180645	5.00000000
11.30603313	5.00000000
11.30997372	5.00000000
11.30997372	4.09803915
11.31387329	0.00000000
11.31790352	0.00000000
11.32190132	5.00000000
11.32593155	5.00000000
11.33011723	5.00000000
11.33011723	0.00000000
11.33450031	0.00000000
11.33844090	0.00000000
11.34242249	0.82352942
11.34242249	5.00000000
11.34635448	5.00000000
11.35048294	5.00000000
11.35456276	0.00000000
11.35456276	0.00000000
11.35893726	0.00000000
11.36304951	5.00000000
11.36689949	5.00000000
11.37094688	4.05882359
11.37525558	0.00000000
11.37525558	0.00000000
11.37938404	0.00000000
11.38327599	5.00000000
11.38784695	5.00000000
11.38784695	5.00000000
11.39194298	0.00000000
11.39589977	0.00000000
11.39988899	0.00000000
11.39988899	0.78431374
11.40400982	5.00000000
11.40822029	5.00000000
11.40822029	5.00000000
11.41230774	0.00000000
11.41640377	0.00000000
11.42043400	0.00000000
11.42043400	5.00000000
11.42451382	5.00000000
11.42854404	5.00000000
11.43272209	3.82352948
11.43272209	0.00000000
11.43681049	0.00000000
11.44089031	0.00000000
11.44492817	5.00000000
11.44492817	5.00000000
11.44888496	5.00000000
11.45294857	0.00000000
11.45294857	0.00000000
11.45700359	0.00000000
11.46127129	0.94117647
11.46530247	5.00000000
11.46530247	5.00000000
11.46947193	5.00000000
11.47351074	0.00000000
11.47772884	0.00000000
11.47772884	0.00000000
11.48167801	5.00000000
11.48586369	5.00000000
11.48991871	3.92156863
11.49384308	0.00000000
11.49832439	0.00000000
11.49832439	0.00000000
11.50217438	5.00000000
11.50612259	5.00000000
11.51040745	5.00000000
11.51040745	0.00000000
11.51448631	0.00000000
11.51862335	0.00000000
11.52267075	1.05882359
11.52267075	5.00000000
11.52697945	5.00000000
11.53108406	5.00000000
11.53524494	0.00000000
11.53916931	0.00000000
11.54348660	5.00000000
11.54348660	5.00000000
11.54748440	5.00000000
11.55166245	3.88235283
11.55595493	0.00000000
11.55595493	0.00000000
11.55982113	0.00000000
11.56371212	5.00000000
11.56775951	5.00000000
11.56775951	5.00000000
11.57171631	0.00000000
11.57591057	0.00000000
11.57591057	0.00000000
11.57992458	1.03921568
11.58413506	5.00000000
11.58820629	5.00000000
11.58820629	5.00000000
11.59235191	0.00000000
11.59631634	0.00000000
11.60037994	0.00000000
11.60037994	5.00000000
11.60439396	5.00000000
11.60860443	5.00000000
11.61290550	3.64705873
11.61290550	0.00000000
11.61679649	0.00000000
11.62090111	0.00000000
11.62090111	5.00000000
11.62516880	5.00000000
11.62921619	5.00000000
11.63320541	0.00000000
11.63320541	0.00000000
11.63744068	0.00000000
11.64171696	1.07843137
11.64578819	5.00000000
11.64578819	5.00000000
11.64978600	5.00000000
11.65386581	0.00000000
11.65813351	0.00000000
11.66231155	5.00000000
11.66621113	5.00000000
11.66621113	5.00000000
11.67030716	3.90196085
11.67428780	0.00000000
11.67850685	0.00000000
11.67850685	0.00000000
11.68259525	5.00000000
11.68655109	5.00000000
11.69058228	5.00000000
11.69058228	0.00000000
11.69471931	0.00000000
11.69877434	0.00000000
11.70282936	5.00000000
11.70711327	5.00000000
11.71108627	5.00000000
11.71108627	0.00000000
11.71516609	0.00000000
11.71926212	0.00000000
11.72333336	5.00000000
11.72333336	5.00000000
11.72737217	5.00000000
11.73150921	3.72549009
11.73572826	0.00000000
11.73572826	0.00000000
11.73990631	0.00000000
11.74377251	5.00000000
11.74377251	5.00000000
11.74796677	5.00000000
11.75220203	0.00000000
11.75618362	0.00000000
11.75618362	0.00000000
11.76040268	1.33333337
11.76439190	5.00000000
11.76869297	5.00000000
11.76869297	5.00000000
11.77280521	0.00000000
11.77740097	0.00000000
11.78108692	5.00000000
11.78515053	5.00000000
11.78916454	5.00000000
11.78916454	3.68627453
11.79336739	0.00000000
11.79741383	0.00000000
11.80183792	0.00000000
11.80183792	5.00000000
11.80563831	5.00000000
11.81021023	5.00000000
11.81371593	0.00000000
11.81371593	0.00000000
11.81769753	0.00000000
11.82168674	1.50980389
11.82575035	5.00000000
11.82974815	5.00000000
11.83397484	0.00000000
11.83397484	0.00000000
11.83806229	0.00000000
11.84224033	5.00000000
11.84615612	5.00000000
11.84615612	5.00000000
11.85024452	3.58823538
11.85428238	0.00000000
11.85865688	0.00000000
11.85865688	0.00000000
11.86271191	5.00000000
11.86668587	5.00000000
11.86668587	5.00000000
11.87067509	0.00000000
11.87507439	0.00000000
11.87904739	0.00000000
11.87904739	1.56862748
11.88297939	5.00000000
11.88737011	5.00000000
11.89156437	5.00000000
11.89156437	0.00000000
11.89561939	0.00000000
11.89960098	0.00000000
11.90364742	5.00000000
11.90364742	5.00000000
11.90781784	5.00000000
11.91194630	3.52941179
11.91194630	0.00000000
11.91621399	0.00000000
11.92012978	0.00000000
11.92426682	5.00000000
11.92426682	5.00000000
11.92838764	5.00000000
11.93241024	0.00000000
11.93639946	0.00000000
11.93639946	0.00000000
11.94039726	1.66666663
11.94448471	5.00000000
11.94876957	5.00000000
11.95272636	0.00000000
11.95687103	0.00000000
11.95687103	0.00000000
11.96108150	5.00000000
11.96518612	5.00000000
11.96906948	5.00000000
11.96906948	3.27450991
11.97314072	0.00000000
11.97723675	0.00000000
11.98134041	0.00000000
11.98134041	5.00000000
11.98560905	5.00000000
11.98961449	5.00000000
11.99360371	0.00000000
11.99789715	0.00000000
12.00202560	1.82352936
12.00202560	5.00000000
12.00600719	5.00000000
12.01015186	5.00000000
12.01443672	0.00000000
12.01443672	0.00000000
12.01847458	0.00000000
12.02275085	5.00000000
12.02725697	5.00000000
12.02725697	5.00000000
12.03096771	3.25490189
12.03491592	0.00000000
12.03491592	0.00000000
12.03902054	0.00000000
12.04304314	5.00000000
12.04747486	5.00000000
12.04747486	5.00000000
12.05182457	0.00000000
12.05557632	0.00000000
12.05963993	0.00000000
12.05963993	2.19607854
12.06351471	5.00000000
12.06749630	5.00000000
12.07159996	0.00000000
12.07562256	0.00000000
12.07968521	0.00000000
12.07968521	5.00000000
12.08384705	5.00000000
12.08794308	5.00000000
12.09214592	3.07843137
12.09214592	0.00000000
12.09600449	0.00000000
12.10010815	0.00000000
12.10417938	5.00000000
12.10417938	5.00000000
12.10836601	5.00000000
12.11261749	0.00000000
12.11655807	0.00000000
12.12055588	1.92156863
12.12493038	5.00000000
12.12493038	5.00000000
12.12897682	5.00000000
12.13292503	0.00000000
12.13739014	0.00000000
12.13739014	0.00000000
12.14133835	5.00000000
12.14547539	5.00000000
12.14958763	5.00000000
12.14958763	2.27450991
12.15355301	0.00000000
12.15781307	0.00000000
12.15781307	0.00000000
12.16192532	5.00000000
12.16602135	5.00000000
12.17002678	5.00000000
12.17002678	0.00000000
12.17409801	0.00000000
12.17837429	0.00000000
12.18238068	2.17647052
12.18238068	5.00000000
12.18628025	5.00000000
12.19035912	5.00000000
12.19445515	0.00000000
12.19445515	0.00000000
12.19850254	0.00000000
12.20257378	5.00000000
12.20257378	5.00000000
12.20672703	5.00000000
12.21081543	2.41176462
12.21510792	0.00000000
12.21510792	0.00000000
12.21894932	0.00000000
12.22303772	5.00000000
12.22711658	5.00000000
12.22711658	5.00000000
12.23128700	0.00000000
12.23549747	0.00000000
12.23946285	2.60784316
12.24345207	5.00000000
12.24787521	5.00000000
12.24787521	5.00000000
12.25190639	0.00000000
12.25596905	0.00000000
12.25990105	0.00000000
12.25990105	5.00000000
12.26423454	5.00000000
12.26815033	5.00000000
12.27232075	2.88235283
12.27232075	0.00000000
12.27630138	0.00000000
12.28047943	0.00000000
12.28460026	5.00000000
12.28859806	5.00000000
12.29260349	0.00000000
12.29260349	0.00000000
12.29694557	0.00000000
12.30091095	2.52941179
12.30498219	5.00000000
12.30498219	5.00000000
12.30906963	5.00000000
12.31337929	0.00000000
12.31732750	0.00000000
12.31732750	0.00000000
12.32130909	5.00000000
12.32554436	5.00000000
12.32554436	5.00000000
12.32972145	2.78431368
12.33376884	0.00000000
12.33781528	0.00000000
12.33781528	0.00000000
12.34204292	5.00000000
12.34621239	5.00000000
12.35016060	5.00000000
12.35016060	0.00000000
12.35427284	0.00000000
12.35840225	0.00000000
12.36251450	5.00000000
12.36661053	5.00000000
12.37077999	4.98039198
12.37077999	0.00000000
12.37477779	0.00000000
12.37890625	0.00000000
12.38292885	5.00000000
12.38292885	5.00000000
12.38697529	5.00000000
12.39092445	2.84313726
12.39511013	0.00000000
12.39511013	0.00000000
12.39933777	0.00000000
12.40339279	5.00000000
12.40751266	5.00000000
12.41149426	0.00000000
12.41574574	0.00000000
12.41574574	0.00000000
12.42116070	2.39215684
12.42397881	5.00000000
12.42800903	5.00000000
12.42800903	4.98039198
12.43191719	0.00000000
12.43632412	0.00000000
12.44026470	0.00000000
12.44026470	5.00000000
12.44428730	5.00000000
12.44841576	5.00000000
12.44841576	2.92156863
12.45255280	0.00000000
12.45680428	0.00000000
12.46088409	0.00000000
12.46088409	5.00000000
12.46502113	5.00000000
12.46931362	5.00000000
12.47324562	0.00000000
12.47324562	0.00000000
12.47736645	0.00000000
12.48133087	2.33333325
12.48581219	5.00000000
12.48581219	5.00000000
12.48982620	4.98039198
12.49402046	0.00000000
12.49402046	0.00000000
12.49818230	0.00000000
12.50175381	5.00000000
12.50587463	5.00000000
12.50587463	5.00000000
12.50989628	2.92156863
12.51386166	0.00000000
12.51798248	0.00000000
12.51798248	0.00000000
12.52206993	5.00000000
12.52623177	5.00000000
12.53034401	0.00000000
12.53444004	0.00000000
12.53850269	0.00000000
12.53850269	2.72549009
12.54256630	5.00000000
12.54679394	5.00000000
12.55102062	5.00000000
12.55102062	0.00000000
12.55485439	0.00000000
12.55902386	0.00000000
12.56328392	5.00000000
12.56328392	5.00000000
12.56731415	5.00000000
12.57125473	2.50980401
12.57550621	0.00000000
12.57972527	0.00000000
12.58372307	5.00000000
12.58372307	5.00000000
12.58773708	5.00000000
12.59202957	0.00000000
12.59621620	0.00000000
12.59621620	0.00000000
12.60004997	1.92156863
12.60415363	5.00000000
12.60826588	5.00000000
12.60826588	4.98039198
12.61238670	0.00000000
12.61665440	0.00000000
12.61665440	0.00000000
12.62060356	5.00000000
12.62463379	5.00000000
12.62873840	5.00000000
12.62873840	2.82352948
12.63271904	0.00000000
12.63693047	0.00000000
12.64087009	0.00000000
12.64087009	5.00000000
12.64504814	5.00000000
12.64918518	5.00000000
12.65324879	0.00000000
12.65741825	0.00000000
12.66142368	1.60784316
12.66142368	5.00000000
12.66547871	5.00000000
12.66968155	4.90196085
12.67393303	0.00000000
12.67393303	0.00000000
12.67795563	0.00000000
12.68182182	5.00000000
12.68599224	5.00000000
12.68599224	5.00000000
12.69014549	3.29411769
12.69430637	0.00000000
12.69826317	0.00000000
12.70269585	5.00000000
12.70674229	5.00000000
12.70674229	5.00000000
12.71067429	0.00000000
12.71485233	0.00000000
12.71906281	0.00000000
12.71906281	2.05882359
12.72298717	5.00000000
12.72730446	5.00000000
12.73166275	4.98039198
12.73166275	0.00000000
12.73543930	0.00000000
12.73936272	0.00000000
12.73936272	5.00000000
12.74336052	5.00000000
12.74743176	5.00000000
12.75153637	2.58823538
12.75153637	0.00000000
12.75563240	0.00000000
12.75964642	0.00000000
12.76375008	5.00000000
12.76375008	5.00000000
12.76796913	5.00000000
12.77197552	0.00000000
12.77611256	0.00000000
12.77611256	0.00000000
12.78031445	1.54901958
12.78427124	5.00000000
12.78427124	5.00000000
12.78826046	4.88235283
12.79245472	0.00000000
12.79664135	0.00000000
12.79664135	0.00000000
12.80070496	4.94117641
12.80475140	5.00000000
12.80892086	5.00000000
12.80892086	2.39215684
12.81327057	0.00000000
12.81708813	0.00000000
12.82106209	5.00000000
12.82532120	5.00000000
12.82934380	5.00000000
12.82934380	0.00000000
12.83336639	0.00000000
12.83743763	0.00000000
12.84159088	1.05882359
12.84159088	5.00000000
12.84580994	5.00000000
12.84975815	4.80392170
12.85381317	0.00000000
12.85381317	0.00000000
12.85802364	0.00000000
12.86217690	4.27450991
12.86619949	5.00000000
12.87017250	2.25490189
12.87472725	0.00000000
12.87472725	0.00000000
12.87854481	0.00000000
12.88261604	5.00000000
12.88677788	5.00000000
12.88677788	5.00000000
12.89096355	0.00000000
12.89511776	0.00000000
12.89904118	0.00000000
12.89904118	1.98039210
12.90311241	5.00000000
12.90734768	5.00000000
12.90734768	4.86274529
12.91158295	0.00000000
12.91548252	0.00000000
12.91961956	0.00000000
12.91961956	5.00000000
12.92371559	5.00000000
12.92782784	5.00000000
12.93198109	2.13725495
12.93198109	0.00000000
12.93634796	0.00000000
12.94001770	0.00000000
12.94409752	5.00000000
12.94820118	5.00000000
12.95221519	0.00000000
12.95221519	0.00000000
12.95631123	0.00000000
12.96052265	2.13725495
12.96457767	5.00000000
12.96457767	5.00000000
12.96857452	4.86274529
12.97265434	0.00000000
12.97673416	0.00000000
12.97673416	0.00000000
12.98101902	5.00000000
12.98503304	5.00000000
12.98912907	2.98039222
12.99307728	0.00000000
12.99727154	0.00000000
12.99727154	0.19607843
13.00148201	5.00000000
13.00547981	5.00000000
13.00955963	5.00000000
13.00955963	0.00000000
13.01383591	0.00000000
13.01783371	0.00000000
13.02196217	2.39215684
13.02196217	5.00000000
13.02614880	5.00000000
13.03081799	4.92156839
13.03081799	0.00000000
13.03441429	0.00000000
13.03837109	0.00000000
13.04272938	5.00000000
13.04272938	5.00000000
13.04670238	5.00000000
13.05116653	3.05882359
13.05544281	0.00000000
13.05544281	0.00000000
13.05953884	0.21568628
13.06305313	5.00000000
13.06721497	5.00000000
13.06721497	5.00000000
13.07113838	0.00000000
13.07526779	0.00000000
13.07526779	0.00000000
13.07921600	2.27450991
13.08328724	5.00000000
13.08756351	5.00000000
13.08756351	4.80392170
13.09162712	0.00000000
13.09557533	0.00000000
13.09963894	0.00000000
13.09963894	5.00000000
13.10374260	5.00000000
13.10803604	5.00000000
13.11209106	0.00000000
13.11608028	0.00000000
13.12012672	0.35294119
13.12012672	5.00000000
13.12430477	5.00000000
13.12843323	5.00000000
13.13255405	0.00000000
13.13255405	0.00000000
13.13672352	0.00000000
13.14083672	2.50980401
13.14522743	5.00000000
13.14522743	5.00000000
13.14946270	4.62745094
13.15342712	0.00000000
13.15744972	0.00000000
13.16147995	5.00000000
13.16546154	5.00000000
13.16546154	5.00000000
13.16991806	2.25490189
13.17380142	0.00000000
13.17806911	0.00000000
13.17806911	0.11764706
13.18201733	5.00000000
13.18599892	5.00000000
13.18992329	4.98039198
13.18992329	0.00000000
13.19400215	0.00000000
13.19800854	0.00000000
13.19800854	2.31372547
13.20213699	5.00000000
13.20618439	5.00000000
13.21027946	4.60784292
13.21027946	0.00000000
13.21444988	0.00000000
13.21850491	0.00000000
13.22251034	5.00000000
13.22251034	5.00000000
13.22665596	5.00000000
13.23080063	2.13725495
13.23503590	0.00000000
13.23898506	0.13725491
13.24302292	5.00000000
13.24302292	5.00000000
13.24716854	4.98039198
13.25133038	0.00000000
13.25533581	0.00000000
13.25533581	0.00000000
13.25951385	2.50980401
13.26357746	5.00000000
13.26773071	5.00000000
13.26773071	4.62745094
13.27182674	0.00000000
13.27606964	0.00000000
13.28014946	4.74509811
13.28433609	5.00000000
13.28830051	5.00000000
13.28830051	1.45098042
13.29233074	0.00000000
13.29652500	0.00000000
13.30055618	0.09803922
13.30055618	5.00000000
13.30473328	5.00000000
13.30904293	4.98039198
13.31285191	0.00000000
13.31285191	0.00000000
13.31688213	0.00000000
13.32094574	2.47058821
13.32094574	5.00000000
13.32503319	5.00000000
13.32908821	4.64705896
13.33316040	0.00000000
13.33316040	0.00000000
13.33739567	0.00000000
13.34145069	4.98039198
13.34546471	5.00000000
13.34546471	5.00000000
13.34954357	2.86274505
13.35367298	0.00000000
13.35801411	0.00000000
13.35801411	0.17647059
13.36208630	5.00000000
13.36602592	5.00000000
13.36602592	4.98039198
13.36995792	0.00000000
13.37422657	0.00000000
13.37831402	0.00000000
13.37831402	2.15686274
13.38237762	5.00000000
13.38644028	5.00000000
13.39070034	4.52941179
13.39070034	0.00000000
13.39483738	0.00000000
13.39889240	0.00000000
13.40332413	5.00000000
13.40721607	5.00000000
13.41117191	2.35294127
13.41117191	0.00000000
13.41547298	0.00000000
13.41926575	0.27450982
13.42339516	5.00000000
13.42339516	5.00000000
13.42754841	4.98039198
13.43175888	0.00000000
13.43590355	0.00000000
13.43590355	0.00000000
13.43984413	1.76470590
13.44388294	5.00000000
13.44793797	4.37254906
13.45195198	0.00000000
13.45605659	0.00000000
13.45605659	0.00000000
13.46024227	4.52941179
13.46442890	5.00000000
13.46837711	5.00000000
13.46837711	2.25490189
13.47247314	0.00000000
13.47665882	0.00000000
13.48062420	0.11764706
13.48062420	5.00000000
13.48483467	5.00000000
13.48891449	4.98039198
13.48891449	0.00000000
13.49286270	0.00000000
13.49706554	0.00000000
13.50130081	1.76470590
13.50130081	5.00000000
13.50522423	5.00000000
13.50928783	4.70588255
13.51365471	0.00000000
13.51365471	0.00000000
13.51761055	0.00000000
13.52173996	5.00000000
13.52591801	5.00000000
13.52591801	5.00000000
13.53030872	2.88235283
13.53437996	0.00000000
13.53437996	0.00000000
13.53811550	0.54901963
13.54223633	5.00000000
13.54649639	5.00000000
13.54649639	4.98039198
13.55046940	0.00000000
13.55495834	0.00000000
13.55995560	0.00000000
13.55995560	2.64705873
13.56295395	5.00000000
13.56686974	5.00000000
13.57084274	0.00000000
13.57495499	0.00000000
13.57892036	0.00000000
13.57892036	5.00000000
13.58300781	5.00000000
13.58713627	5.00000000
13.59142113	3.11764717
13.59142113	0.00000000
13.59529591	0.00000000
13.59936714	0.41176471
13.60355282	5.00000000
13.60355282	5.00000000
13.60796070	5.00000000
13.61183548	0.21568628
13.61183548	0.00000000
13.61583328	0.00000000
13.61989594	2.72549009
13.62405777	5.00000000
13.62405777	5.00000000
13.62819481	4.58823538
13.63227463	0.00000000
13.63631344	0.00000000
13.63631344	0.00000000
13.64048290	5.00000000
13.64478397	5.00000000
13.64890385	5.00000000
13.64890385	2.90196085
13.65281963	0.00000000
13.65732574	0.00000000
13.65732574	0.45098040
13.66113472	5.00000000
13.66520596	5.00000000
13.66926956	5.00000000
13.66926956	0.00000000
13.67338181	0.00000000
13.67746162	0.00000000
13.68164730	2.31372547
13.68164730	5.00000000
13.68561268	5.00000000
13.68974972	4.70588255
13.69377995	0.00000000
13.69782639	0.00000000
13.70185757	5.00000000
13.70185757	5.00000000
13.70588779	5.00000000
13.71017170	3.17647052
13.71423531	0.00000000
13.71423531	0.00000000
13.71820831	0.37254903
13.72241116	5.00000000
13.72649860	5.00000000
13.72649860	5.00000000
13.73068523	0.00000000
13.73496914	0.00000000
13.73872089	2.39215684
13.74275970	5.00000000
13.74693012	5.00000000
13.74693012	4.50980377
13.75112438	0.00000000
13.75516224	0.00000000
13.75918484	0.00000000
13.75918484	5.00000000
13.76346111	5.00000000
13.76738548	5.00000000
13.77155495	2.76470590
13.77155495	0.00000000
13.77576542	0.00000000
13.78018951	0.31372550
13.78018951	5.00000000
13.78426075	5.00000000
13.78836441	5.00000000
13.79265785	0.00000000
13.79265785	0.00000000
13.79656506	0.00000000
13.80079174	1.86274505
13.80500317	5.00000000
13.80500317	5.00000000
13.80871391	4.52941179
13.81258869	0.00000000
13.81665134	0.00000000
13.81665134	0.00000000
13.82060814	4.98039198
13.82473755	5.00000000
13.82473755	5.00000000
13.82886600	2.56862736
13.83287239	0.00000000
13.83701706	0.00000000
13.83701706	0.49019608
13.84129333	5.00000000
13.84536457	5.00000000
13.84951782	4.98039198
13.84951782	0.00000000
13.85349083	0.00000000
13.85795593	0.00000000
13.86175728	5.00000000
13.86571407	5.00000000
13.86975193	4.58823538
13.86975193	0.00000000
13.87396336	0.00000000
13.87819004	0.00000000
13.88208961	4.92156839
13.88208961	5.00000000
13.88614464	5.00000000
13.89050293	2.88235283
13.89456558	0.00000000
13.89456558	0.00000000
13.89863777	0.11764706
13.90293789	5.00000000
13.90706730	4.96078444
13.91091728	0.47058824
13.91525078	0.00000000
13.91525078	0.00000000
13.91906834	2.82352948
13.92310715	5.00000000
13.92757130	4.98039198
13.92757130	3.45098042
13.93153667	5.00000000
13.93554211	5.00000000
13.93951511	5.00000000
13.93951511	0.00000000
13.94371796	0.00000000
13.94769955	0.00000000
13.94769955	4.90196085
13.95168018	5.00000000
13.95580101	5.00000000
13.95990562	4.86274529
13.95990562	0.00000000
13.96405029	0.00000000
13.96811390	0.00000000
13.97215271	5.00000000
13.97215271	5.00000000
13.97630596	5.00000000
13.98045921	0.00000000
13.98481750	0.00000000
13.98861027	0.01960784
13.99260807	5.00000000
13.99260807	5.00000000
13.99703979	5.00000000
14.00101280	0.00000000
14.00502682	0.00000000
14.00502682	0.00000000
14.00909805	4.96078444
14.01353836	5.00000000
14.01756096	5.00000000
14.01756096	4.80392170
14.02152538	0.00000000
14.02569485	0.00000000
14.02979946	5.00000000
14.03413296	5.00000000
14.03802395	5.00000000
14.03802395	0.00000000
14.04222679	0.00000000
14.04629803	0.00000000
14.05042648	0.09803922
14.05042648	5.00000000
14.05468655	5.00000000
14.05861092	5.00000000
14.06250191	0.00000000
14.06250191	0.00000000
14.06663036	0.00000000
14.07063675	4.98039198
14.07063675	5.00000000
14.07465839	5.00000000
14.07869720	4.66666651
14.08276081	0.00000000
14.08276081	0.00000000
14.08693027	0.00000000
14.09109974	5.00000000
14.09513855	5.00000000
14.09513855	5.00000000
14.09920979	0.00000000
14.10330582	0.00000000
14.10746765	0.00000000
14.10746765	0.21568628
14.11166191	5.00000000
14.11565113	5.00000000
14.11565113	5.00000000
14.11957550	0.00000000
14.12382698	0.00000000
14.12804604	0.00000000
14.12804604	5.00000000
14.13198662	5.00000000
14.13600826	5.00000000
14.14035892	4.68627453
14.14035892	0.00000000
14.14446259	0.00000000
14.14851761	0.00000000
14.15283489	5.00000000
14.15692329	5.00000000
14.16100216	0.00000000
14.16100216	0.00000000
14.16530323	0.00000000
14.16896534	0.50980395
14.17315102	5.00000000
14.17315102	5.00000000
14.17731285	5.00000000
14.18131065	0.00000000
14.18544769	0.00000000
14.18544769	0.00000000
14.18945313	5.00000000
14.19354916	5.00000000
14.19753075	4.47058821
14.20154476	0.00000000
14.20562458	0.00000000
14.20562458	0.00000000
14.20978546	5.00000000
14.21385765	5.00000000
14.21798611	5.00000000
14.21798611	0.00000000
14.22201633	0.00000000
14.22611237	0.00000000
14.23019218	0.47058824
14.23019218	5.00000000
14.23458290	5.00000000
14.23853111	5.00000000
14.23853111	0.00000000
14.24245548	0.00000000
14.24660873	0.00000000
14.25085258	5.00000000
14.25085258	5.00000000
14.25498104	5.00000000
14.25907707	4.41176462
14.26323032	0.00000000
14.26323032	0.00000000
14.26735115	0.00000000
14.27147198	5.00000000
14.27562523	5.00000000
14.27969646	0.00000000
14.28394794	0.00000000
14.28394794	0.00000000
14.28797054	0.66666669
14.29243469	5.00000000
14.29644108	5.00000000
14.29644108	5.00000000
14.30057812	0.00000000
14.30446053	0.00000000
14.30866337	0.00000000
14.30866337	5.00000000
14.31250572	5.00000000
14.31649494	5.00000000
14.32053375	0.00000000
14.32454777	0.00000000
14.32856178	0.00000000
14.32856178	5.00000000
14.33261681	5.00000000
14.33675385	5.00000000
14.34097290	0.00000000
14.34097290	0.00000000
14.34510136	0.00000000
14.34914780	0.66666669
14.35321140	5.00000000
14.35321140	5.00000000
14.35737324	5.00000000
14.36151791	0.00000000
14.36151791	0.00000000
14.36550713	0.00000000
14.36948872	5.00000000
14.37369919	5.00000000
14.37369919	5.00000000
14.37784481	4.17647076
14.38191605	0.00000000
14.38591385	0.00000000
14.38591385	0.00000000
14.39012432	5.00000000
14.39422894	5.00000000
14.39828396	5.00000000
14.39828396	0.00000000
14.40265846	0.00000000
14.40680313	0.00000000
14.40680313	0.76470590
14.41076851	5.00000000
14.41493797	5.00000000
14.41902637	5.00000000
14.41902637	0.00000000
14.42294216	0.00000000
14.42725849	0.00000000
14.43125629	5.00000000
14.43125629	5.00000000
14.43538570	5.00000000
14.43935871	4.05882359
14.44338894	0.00000000
14.44745255	0.00000000
14.45144176	5.00000000
14.45144176	5.00000000
14.45550537	5.00000000
14.45974827	0.00000000
14.46382809	0.00000000
14.46382809	0.00000000
14.46787453	0.84313726
14.47190571	5.00000000
14.47604179	5.00000000
14.47604179	5.00000000
14.48007298	0.00000000
14.48445511	0.00000000
14.48837948	5.00000000
14.49233627	5.00000000
14.49647331	5.00000000
14.49647331	3.86274505
14.50078201	0.00000000
14.50481224	0.00000000
14.50892448	0.00000000
14.50892448	5.00000000
14.51304531	5.00000000
14.51723194	5.00000000
14.52136040	0.00000000
14.52136040	0.00000000
14.52544785	0.00000000
14.52971649	1.03921568
14.52971649	5.00000000
14.53405762	5.00000000
14.53763008	5.00000000
14.54202080	0.00000000
14.54202080	0.00000000
14.54627228	0.00000000
14.55035210	5.00000000
14.55450535	5.00000000
14.55450535	5.00000000
14.55847836	3.92156863
14.56229591	0.00000000
14.56630993	0.00000000
14.57033253	5.00000000
14.57446957	5.00000000
14.57446957	5.00000000
14.57849121	0.00000000
14.58251381	0.00000000
14.58678150	0.00000000
14.58678150	1.03921568
14.59078789	5.00000000
14.59488392	5.00000000
14.59893894	5.00000000
14.59893894	0.00000000
14.60302639	0.00000000
14.60724545	0.00000000
14.61128426	5.00000000
14.61540413	5.00000000
14.61941910	3.84313726
14.61941910	0.00000000
14.62351418	0.00000000
14.62775803	0.00000000
14.63174725	5.00000000
14.63174725	5.00000000
14.63574505	5.00000000
14.63997269	0.00000000
14.64419079	0.00000000
14.64419079	0.00000000
14.64822960	1.21568632
14.65231800	5.00000000
14.65231800	5.00000000
14.65661049	5.00000000
14.66073895	0.00000000
14.66469574	0.00000000
14.66469574	0.00000000
14.66881657	5.00000000
14.67293739	5.00000000
14.67719650	5.00000000
14.67719650	3.62745094
14.68148136	0.00000000
14.68539715	0.00000000
14.68919849	0.00000000
14.68919849	5.00000000
14.69339275	5.00000000
14.69739056	5.00000000
14.69739056	0.00000000
14.70141220	0.00000000
14.70539379	0.00000000
14.70948982	1.13725495
14.70948982	5.00000000
14.71379852	5.00000000
14.71774673	5.00000000
14.72177792	0.00000000
14.72177792	0.00000000
14.72589016	0.00000000
14.72993660	5.00000000
14.73420525	5.00000000
14.73825169	3.70588231
14.74229050	0.00000000
14.74229050	0.00000000
14.74639416	0.00000000
14.75076103	5.00000000
14.75496387	5.00000000
14.75496387	5.00000000
14.75886250	0.00000000
14.76283550	0.00000000
14.76689911	0.00000000
14.76689911	1.54901958
14.77098656	5.00000000
14.77529621	5.00000000
14.77945709	0.00000000
14.78377438	0.00000000
14.78762531	0.00000000
14.78762531	5.00000000
14.79176998	5.00000000
14.79592323	5.00000000
14.79997063	3.50980401
14.79997063	0.00000000
14.80409908	0.00000000
14.80830956	0.00000000
14.81212711	5.00000000
14.81212711	5.00000000
14.81605148	5.00000000
14.82015514	0.00000000
14.82015514	0.00000000
14.82434177	0.00000000
14.82829857	1.60784316
14.83245945	5.00000000
14.83245945	5.00000000
14.83656406	5.00000000
14.84066772	0.00000000
14.84478092	0.00000000
14.84478092	0.00000000
14.84876156	5.00000000
14.85284138	5.00000000
14.85790443	3.37254906
14.86127090	0.00000000
14.86523628	0.00000000
14.86523628	0.00000000
14.86926651	5.00000000
14.87339497	5.00000000
14.87799072	5.00000000
14.87799072	0.00000000
14.88166904	0.00000000
14.88565063	0.00000000
14.88995171	1.80392158
14.88995171	5.00000000
14.89408016	5.00000000
14.89823341	5.00000000
14.90222263	0.00000000
14.90642548	0.00000000
14.91061115	5.00000000
14.91061115	5.00000000
14.91465855	5.00000000
14.91863155	3.19607854
14.92280960	0.00000000
14.92280960	0.00000000
14.92678261	0.00000000
14.93105888	5.00000000
14.93515491	5.00000000
14.93515491	5.00000000
14.93911934	0.00000000
14.94310093	0.00000000
14.94310093	0.00000000
14.94714737	1.86274505
14.95121956	5.00000000
14.95535660	5.00000000
14.95535660	5.00000000
14.95935345	0.00000000
14.96352386	0.00000000
14.96772575	0.00000000
14.96772575	5.00000000
14.97164154	5.00000000
14.97569656	5.00000000
14.97989941	3.03921580
14.97989941	0.00000000
14.98409367	0.00000000
14.98813248	0.00000000
14.98813248	5.00000000
14.99215508	5.00000000
14.99628353	5.00000000
15.00040436	0.00000000
15.00040436	0.00000000
15.00447559	0.00000000
15.00855541	1.88235295
15.01265907	5.00000000
15.01265907	5.00000000
15.01677132	5.00000000
15.02088356	0.00000000
15.02535725	0.00000000
15.02946091	5.00000000
15.03360653	5.00000000
15.03360653	5.00000000
15.03744030	2.94117641
15.04152775	0.00000000
15.04560757	0.00000000
15.04560757	0.00000000
15.04973602	5.00000000
15.05380726	5.00000000
15.05799389	5.00000000
15.05799389	0.00000000
15.06196690	0.00000000
15.06598091	0.00000000
15.06999493	5.00000000
15.07419777	5.00000000
15.07812977	5.00000000
15.07812977	0.00000000
15.08232403	0.00000000
15.08655930	0.00000000
15.09058189	5.00000000
15.09058189	5.00000000
15.09464455	5.00000000
15.09865093	2.52941179
15.10277939	0.00000000
15.10277939	0.00000000
15.10797310	0.00000000
15.11107826	5.00000000
15.11107826	5.00000000
15.11512470	5.00000000
15.11918831	0.00000000
15.12326717	0.00000000
15.12326717	0.00000000
15.12752724	2.47058821
15.13148403	5.00000000
15.13549042	5.00000000
15.13549042	5.00000000
15.13965130	0.00000000
15.14385414	0.00000000
15.14808941	5.00000000
15.15216923	5.00000000
15.15705109	5.00000000
15.15705109	2.66666675
15.16058254	0.00000000
15.16437531	0.00000000
15.16860199	0.00000000
15.16860199	5.00000000
15.17260838	5.00000000
15.17678547	5.00000000
15.18084049	0.00000000
15.18084049	0.00000000
15.18515015	0.00000000
15.18895912	2.39215684
15.19300652	5.00000000
15.19706917	5.00000000
15.20114040	0.00000000
15.20114040	0.00000000
15.20513821	0.00000000
15.20922661	5.00000000
15.21358395	5.00000000
15.21358395	5.00000000
15.21759033	2.54901958
15.22148132	0.00000000
15.22574139	0.00000000
15.22574139	0.00000000
15.22973061	5.00000000
15.23394966	5.00000000
15.23394966	5.00000000
15.23814392	0.00000000
15.24197769	0.00000000
15.24627018	0.00000000
15.24627018	2.52941179
15.25042343	5.00000000
15.25447845	5.00000000
15.25844383	5.00000000
15.25844383	0.00000000
15.26253986	0.00000000
15.26664352	0.00000000
15.27075672	5.00000000
15.27075672	5.00000000
15.27510643	5.00000000
15.27942371	2.17647052
15.27942371	0.00000000
15.28345394	0.00000000
15.28733730	0.00000000
15.29144096	5.00000000
15.29144096	5.00000000
15.29552078	5.00000000
15.29963303	0.00000000
15.30370426	0.00000000
15.30370426	0.00000000
15.30796432	2.54901958
15.31188869	5.00000000
15.31594372	5.00000000
15.31990051	0.00000000
15.32401276	0.00000000
15.32401276	0.00000000
15.32803440	5.00000000
15.33224583	5.00000000
15.33634186	5.00000000
15.33634186	2.27450991
15.34049511	0.00000000
15.34449291	0.00000000
15.34861279	0.00000000
15.34861279	5.00000000
15.35278320	5.00000000
15.35692787	5.00000000
15.36100769	0.00000000
15.36500549	0.00000000
15.36906815	2.76470590
15.36906815	5.00000000
15.37314034	5.00000000
15.37743282	5.00000000
15.38141346	0.00000000
15.38141346	0.00000000
15.38541126	0.00000000
15.38990879	5.00000000
15.39390659	5.00000000
15.39390659	5.00000000
15.39799404	1.96078432
15.40204144	0.00000000
15.40204144	0.00000000
15.40608788	0.00000000
15.41045475	5.00000000
15.41435432	5.00000000
15.41435432	5.00000000
15.41861343	0.00000000
15.42241478	0.00000000
15.42663383	0.00000000
15.42663383	3.01960778
15.43066406	5.00000000
15.43483353	5.00000000
15.43882370	0.00000000
15.44283772	0.00000000
15.44689274	0.00000000
15.44689274	5.00000000
15.45097256	5.00000000
15.45508480	5.00000000
15.45920467	1.72549021
15.45920467	0.00000000
15.46342373	0.00000000
15.46747875	0.00000000
15.47138691	5.00000000
15.47138691	5.00000000
15.47556496	5.00000000
15.47970963	0.00000000
15.48378944	0.00000000
15.48811436	3.01960778
15.49192429	5.00000000
15.49192429	5.00000000
15.49597931	5.00000000
15.50026321	0.00000000
15.50426102	0.00000000
15.50426102	0.00000000
15.50830841	5.00000000
15.51246166	5.00000000
15.51659012	5.00000000
15.51659012	1.90196073
15.52071857	0.00000000
15.52489662	0.00000000
15.52489662	0.00000000
15.52909946	5.00000000
15.53347397	5.00000000
15.53743076	5.00000000
15.53743076	0.00000000
15.54184628	0.00000000
15.54562283	0.00000000
15.54962826	2.72549009
15.54962826	5.00000000
15.55408478	5.00000000
15.55788612	5.00000000
15.56178570	0.00000000
15.56178570	0.00000000
15.56584072	0.00000000
15.56986237	5.00000000
15.56986237	5.00000000
15.57392597	5.00000000
15.57792377	2.80392146
15.58200359	0.00000000
15.58200359	0.00000000
15.58631992	0.00000000
15.59029388	5.00000000
15.59432411	5.00000000
15.59432411	5.00000000
15.59839535	0.00000000
15.60247517	0.00000000
15.60795593	0.00000000
15.61082268	5.00000000
15.61495113	5.00000000
15.61495113	5.00000000
15.61883450	4.49019623
15.62307835	4.98039198
15.62728024	4.98039198
15.62728024	3.80392146
15.63125324	0.00000000
15.63532448	0.00000000
15.63956833	1.70588231
15.63956833	5.00000000
15.64391041	5.00000000
15.64790821	4.92156839
15.65188122	0.00000000
15.65612411	0.01960784
15.66021252	4.70588255
15.66021252	5.00000000
15.66425896	5.00000000
15.66873169	3.98039222
15.67233658	0.00000000
15.67233658	0.00000000
15.67643261	0.39215687
15.68059349	5.00000000
15.68464088	5.00000000
15.68464088	4.98039198
15.68862247	1.76470590
15.69270134	0.00000000
15.69270134	0.00000000
15.69688797	1.66666663
15.70090961	5.00000000
15.70492458	5.00000000
15.70492458	4.54901981
15.70902824	0.00000000
15.71320629	0.00000000
15.71741676	0.00000000
15.71741676	4.31372547
15.72126675	5.00000000
15.72546959	5.00000000
15.72948360	0.00000000
15.73367786	0.00000000
15.73791313	0.43137255
15.73791313	5.00000000
15.74173927	5.00000000
15.74586773	4.98039198
15.75011158	0.66666669
15.75011158	0.00000000
15.75428963	0.00000000
15.75823784	2.19607854
15.76263714	5.00000000
15.76263714	5.00000000
15.76676559	4.80392170
15.77067280	0.00000000
15.77513790	0.00000000
15.77906132	4.39215708
15.78335476	5.00000000
15.78335476	5.00000000
15.78715515	2.92156863
15.79157066	0.00000000
15.79545403	0.00000000
15.79545403	0.23529412
15.79971409	5.00000000
15.80389977	5.00000000
15.80802822	4.98039198
15.80802822	0.03921569
15.81224728	0.00000000
15.81567192	0.00000000
15.81567192	1.60784316
15.81978416	5.00000000
15.82380676	5.00000000
15.82792664	4.50980377
15.82792664	0.00000000
15.83197403	0.00000000
15.83606148	0.00000000
15.84014130	4.13725471
15.84014130	5.00000000
15.84422874	5.00000000
15.84821033	2.66666675
15.85243797	0.00000000
15.85243797	0.00000000
15.85668087	0.23529412
15.86067009	5.00000000
15.86067009	5.00000000
15.86477470	4.98039198
15.86875629	0.00000000
15.87292576	0.00000000
15.87292576	0.00000000
15.87717724	1.60784316
15.88111782	5.00000000
15.88522148	5.00000000
15.88522148	4.15686274
15.88943291	0.00000000
15.89356136	0.00000000
15.89764118	3.35294127
15.90160561	5.00000000
15.90588188	4.98039198
15.90588188	2.09803915
15.91015816	0.00000000
15.91420555	0.00000000
15.91894817	0.19607843
15.91894817	5.00000000
15.92210197	5.00000000
15.92634583	4.82352924
15.93044186	0.00000000
15.93044186	0.00000000
15.93448067	0.00000000
15.93866634	2.45098042
15.94268894	4.98039198
15.94666195	2.21568632
15.95074177	0.00000000
15.95074177	0.00000000
15.95482159	0.58823532
15.95885181	4.80392170
15.96298027	4.98039198
15.96298027	3.62745094
15.96732998	0.00000000
15.97112274	0.00000000
15.97521114	0.19607843
15.97521114	3.19607854
15.97934818	4.98039198
15.98350906	4.64705896
15.98350906	1.84313726
15.98774433	0.00000000
15.99172592	0.00000000
15.99578953	1.84313726
15.99578953	5.00000000
15.99993420	5.00000000
16.00410461	4.62745094
16.00806046	1.27450979
16.00806046	0.00000000
16.01222229	0.56862748
16.01661301	3.88235283
16.02054596	4.98039198
16.02054596	4.80392170
16.02474785	2.31372547
16.02899933	0.00000000
16.02899933	0.00000000
16.03307915	0.49019608
16.03701210	4.33333349
16.04120636	4.98039198
16.04120636	4.88235283
16.04544830	2.29411769
16.04956245	0.00000000
16.05369949	0.00000000
16.05369949	1.64705884
16.05767250	5.00000000
16.06155396	4.98039198
16.06556129	0.50980395
16.06955910	0.00000000
16.07368660	0.05882353
16.07368660	2.90196085
16.07775116	5.00000000
16.08182907	4.98039198
16.08593369	4.15686274
16.08593369	0.76470590
16.09019470	0.00000000
16.09405327	1.07843137
16.09816551	5.00000000
16.09816551	5.00000000
16.10222816	4.98039198
16.10640526	4.05882359
16.11059952	0.00000000
16.11458969	2.05882359
16.11859512	5.00000000
16.11859512	5.00000000
16.12392044	4.94117641
16.12700844	2.43137264
16.13105583	0.07843138
16.13105583	0.33333334
16.13511848	3.78431368
16.13988686	5.00000000
16.14345741	4.98039198
16.14345741	4.54901981
16.14754677	1.27450979
16.15147781	0.00000000
16.15147781	0.56862748
16.15574646	4.68627453
16.15983391	4.98039198
16.16412735	4.98039198
16.16412735	3.19607854
16.16803360	0.00000000
16.17227745	0.00000000
16.17621040	1.68627453
16.17621040	5.00000000
16.18045425	5.00000000
16.18448448	4.68627453
16.18848228	0.00000000
16.19255257	0.00000000
16.19658279	1.68627453
16.19658279	4.98039198
16.20058060	4.98039198
16.20466042	4.27450991
16.20876503	0.23529412
16.20876503	0.00000000
16.21301651	0.13725491
16.21695709	3.43137264
16.22107697	5.00000000
16.22107697	4.98039198
16.22512436	3.27450991
16.22921944	0.00000000
16.23340607	1.05882359
16.23777199	5.00000000
16.24154091	5.00000000
16.24154091	4.92156839
16.24562073	1.49019611
16.24992943	0.00000000
16.25401688	0.00000000
16.25401688	2.31372547
16.25796700	5.00000000
16.26224136	4.98039198
16.26646996	4.21568632
16.26646996	0.43137255
16.27050781	0.00000000
16.27502251	0.37254903
16.27502251	4.43137264
16.27876472	5.00000000
16.28322983	4.98039198
16.28706360	3.62745094
16.28706360	0.00000000
16.29133224	0.00000000
16.29516602	1.03921568
16.29916382	4.98039198
16.29916382	5.00000000
16.30347252	4.82352924
16.30768394	2.23529410
16.31154251	0.00000000
16.31154251	0.00000000
16.31541634	2.78431368
16.31947899	5.00000000
16.31947899	4.98039198
16.32355881	3.21568632
16.32763863	0.00000000
16.33165359	0.00000000
16.33165359	0.07843138
16.33577347	2.82352948
16.34017372	4.98039198
16.34397316	4.98039198
16.34397316	3.01960778
16.34811974	0.00000000
16.35212517	0.07843138
16.35629463	5.00000000
16.36043167	5.00000000
16.36451912	4.68627453
16.36451912	1.62745094
16.36848450	0.00000000
16.37269592	0.07843138
16.37695503	3.25490189
16.37695503	5.00000000
16.38092804	4.98039198
16.38492584	3.80392146
16.38914490	0.00000000
16.38914490	0.00000000
16.39342117	0.86274511
16.39769745	4.98039198
16.40150642	4.86274529
16.40561104	2.62745094
16.40969849	0.00000000
16.40969849	0.00000000
16.41394997	2.17647052
16.41782570	4.98039198
16.42206764	4.98039198
16.42206764	4.37254906
16.42609787	0.41176471
16.43026924	0.00000000
16.43467522	0.05882353
16.43467522	3.11764717
16.43829727	4.98039198
16.44239235	4.96078444
16.44239235	3.19607854
16.44647217	0.00000000
16.45050240	0.00000000
16.45455742	0.56862748
16.45455742	4.47058821
16.45871925	4.98039198
16.46279907	4.86274529
16.46714973	1.88235295
16.46714973	0.00000000
16.47093391	0.00000000
16.47502136	1.64705884
16.47917557	5.00000000
16.48341751	4.17647076
16.48745728	0.00000000
16.48745728	0.00000000
16.49142075	0.01960784
16.49550056	2.11764717
16.49981117	4.98039198
16.49981117	4.98039198
16.50374222	3.23529410
16.50788689	0.00000000
16.51213074	0.00000000
16.51213074	0.31372550
16.51643181	3.86274505
16.52028275	4.98039198
16.52490234	1.90196073
16.52871132	0.00000000
16.53294754	0.00000000
16.53294754	1.25490201
16.53707504	4.98039198
16.54089355	4.98039198
16.54528427	4.60784292
16.54528427	1.47058821
16.54901886	0.00000000
16.55352592	0.15686275
16.55746651	3.15686274
16.55746651	5.00000000
16.56138229	4.98039198
16.56530571	4.15686274
16.56530571	0.62745100
16.56935310	0.00000000
16.57339096	0.88235295
16.57751083	4.98039198
16.57751083	5.00000000
16.58149338	4.98039198
16.58585167	3.37254906
16.58988953	0.00000000
16.58988953	0.00000000
16.59385490	1.94117641
16.59792519	5.00000000
16.60207939	5.00000000
16.60207939	4.86274529
16.60796928	2.05882359
16.61039352	0.00000000
16.61039352	0.21568628
16.61444855	3.54901958
16.61833954	5.00000000
16.62255859	4.98039198
16.62255859	4.39215708
16.62683487	0.92156863
16.63076782	0.00000000
16.63489723	0.98039216
16.63489723	5.00000000
16.63897514	5.00000000
16.64323616	4.98039198
16.64737320	0.00000000
16.65128899	0.00000000
16.65559769	1.60784316
16.65559769	5.00000000
16.65958786	4.98039198
16.66390419	4.76470566
16.66775513	1.56862748
16.66775513	0.00000000
16.67177582	0.09803922
16.67577362	3.39215684
16.67993546	5.00000000
16.67993546	4.98039198
16.68453217	4.09803915
16.68822670	0.80392158
16.69220734	0.68627453
16.69626236	4.90196085
16.70037460	5.00000000
16.70037460	4.98039198
16.70443916	3.07843137
16.70865631	0.00000000
16.71285057	0.00000000
16.71285057	1.58823526
16.71670151	5.00000000
16.72089577	4.98039198
16.72491074	4.72549009
16.72491074	1.50980389
16.72893143	0.00000000
16.73318481	0.07843138
16.73318481	3.49019599
16.73739433	4.98039198
16.74127769	4.98039198
16.74535751	3.86274505
16.74535751	0.05882353
16.75005913	0.00000000
